 # Detector n:            1   BdxCHad   (integrated over solid angle)
 # N. of energy intervals         100
  1.000E-04  1.089E-04  1.213E-06  9.900E+01
  1.089E-04  1.186E-04  1.407E-06  9.900E+01
  1.186E-04  1.291E-04  0.000E+00  0.000E+00
  1.291E-04  1.406E-04  0.000E+00  0.000E+00
  1.406E-04  1.531E-04  0.000E+00  0.000E+00
  1.531E-04  1.667E-04  0.000E+00  0.000E+00
  1.667E-04  1.815E-04  0.000E+00  0.000E+00
  1.815E-04  1.977E-04  6.522E-07  9.900E+01
  1.977E-04  2.152E-04  0.000E+00  0.000E+00
  2.152E-04  2.344E-04  6.089E-07  9.900E+01
  2.344E-04  2.552E-04  0.000E+00  0.000E+00
  2.552E-04  2.779E-04  5.325E-07  9.900E+01
  2.779E-04  3.026E-04  6.825E-07  9.900E+01
  3.026E-04  3.295E-04  0.000E+00  0.000E+00
  3.295E-04  3.588E-04  3.555E-07  9.900E+01
  3.588E-04  3.907E-04  1.555E-06  6.880E+01
  3.907E-04  4.254E-04  1.219E-06  6.743E+01
  4.254E-04  4.632E-04  2.726E-07  9.900E+01
  4.632E-04  5.044E-04  1.690E-06  4.484E+01
  5.044E-04  5.493E-04  0.000E+00  0.000E+00
  5.493E-04  5.981E-04  1.089E-06  4.771E+01
  5.981E-04  6.513E-04  1.624E-06  5.520E+01
  6.513E-04  7.092E-04  1.063E-06  6.453E+01
  7.092E-04  7.722E-04  1.110E-06  3.163E+01
  7.722E-04  8.409E-04  5.243E-07  9.900E+01
  8.409E-04  9.157E-04  6.817E-07  4.287E+01
  9.157E-04  9.971E-04  4.069E-07  6.764E+01
  9.971E-04  1.086E-03  1.327E-06  5.276E+01
  1.086E-03  1.182E-03  1.282E-06  5.558E+01
  1.182E-03  1.287E-03  9.722E-07  3.384E+01
  1.287E-03  1.402E-03  1.376E-06  2.922E+01
  1.402E-03  1.526E-03  7.645E-07  4.138E+01
  1.526E-03  1.662E-03  1.217E-06  3.918E+01
  1.662E-03  1.810E-03  1.744E-06  2.636E+01
  1.810E-03  1.971E-03  1.919E-06  5.627E+01
  1.971E-03  2.146E-03  1.722E-06  2.690E+01
  2.146E-03  2.337E-03  1.002E-06  2.815E+01
  2.337E-03  2.545E-03  3.246E-06  2.811E+01
  2.545E-03  2.771E-03  2.202E-06  2.596E+01
  2.771E-03  3.017E-03  1.895E-06  2.827E+01
  3.017E-03  3.285E-03  2.419E-06  8.934E+00
  3.285E-03  3.577E-03  2.409E-06  1.306E+01
  3.577E-03  3.895E-03  2.241E-06  1.675E+01
  3.895E-03  4.242E-03  3.348E-06  2.362E+01
  4.242E-03  4.619E-03  1.870E-06  1.073E+01
  4.619E-03  5.030E-03  2.552E-06  8.892E+00
  5.030E-03  5.477E-03  3.000E-06  8.765E+00
  5.477E-03  5.964E-03  2.858E-06  1.814E+01
  5.964E-03  6.494E-03  3.364E-06  1.055E+01
  6.494E-03  7.071E-03  3.290E-06  4.981E+00
  7.071E-03  7.700E-03  3.045E-06  1.197E+01
  7.700E-03  8.384E-03  3.462E-06  9.146E+00
  8.384E-03  9.130E-03  3.565E-06  3.699E+00
  9.130E-03  9.941E-03  3.856E-06  5.723E+00
  9.941E-03  1.083E-02  4.222E-06  8.973E+00
  1.083E-02  1.179E-02  4.420E-06  7.005E+00
  1.179E-02  1.284E-02  4.762E-06  3.627E+00
  1.284E-02  1.398E-02  4.304E-06  4.707E+00
  1.398E-02  1.522E-02  4.563E-06  7.356E+00
  1.522E-02  1.657E-02  5.065E-06  2.924E+00
  1.657E-02  1.805E-02  5.409E-06  4.592E+00
  1.805E-02  1.965E-02  5.596E-06  4.209E+00
  1.965E-02  2.140E-02  6.136E-06  2.419E+00
  2.140E-02  2.330E-02  5.891E-06  3.582E+00
  2.330E-02  2.537E-02  5.658E-06  2.828E+00
  2.537E-02  2.763E-02  6.344E-06  3.934E+00
  2.763E-02  3.008E-02  6.514E-06  2.897E+00
  3.008E-02  3.276E-02  6.778E-06  4.409E+00
  3.276E-02  3.567E-02  6.754E-06  1.484E+00
  3.567E-02  3.884E-02  6.962E-06  2.894E+00
  3.884E-02  4.229E-02  7.514E-06  1.937E+00
  4.229E-02  4.605E-02  7.487E-06  1.499E+00
  4.605E-02  5.015E-02  7.643E-06  1.132E+00
  5.015E-02  5.461E-02  8.122E-06  9.026E-01
  5.461E-02  5.946E-02  7.995E-06  1.960E+00
  5.946E-02  6.475E-02  8.186E-06  2.017E+00
  6.475E-02  7.050E-02  8.382E-06  6.963E-01
  7.050E-02  7.677E-02  8.581E-06  1.352E+00
  7.677E-02  8.360E-02  8.968E-06  1.065E+00
  8.360E-02  9.103E-02  9.021E-06  1.874E+00
  9.103E-02  9.912E-02  9.228E-06  1.010E+00
  9.912E-02  1.079E-01  9.687E-06  1.116E+00
  1.079E-01  1.175E-01  9.945E-06  1.995E-01
  1.175E-01  1.280E-01  1.040E-05  1.063E+00
  1.280E-01  1.394E-01  1.059E-05  7.259E-01
  1.394E-01  1.517E-01  1.052E-05  4.813E-01
  1.517E-01  1.652E-01  8.705E-06  1.181E+00
  1.652E-01  1.799E-01  6.033E-06  1.209E+00
  1.799E-01  1.959E-01  3.042E-06  1.259E+00
  1.959E-01  2.133E-01  1.543E-07  6.703E+00
  2.133E-01  2.323E-01  0.000E+00  0.000E+00
  2.323E-01  2.530E-01  0.000E+00  0.000E+00
  2.530E-01  2.754E-01  0.000E+00  0.000E+00
  2.754E-01  2.999E-01  0.000E+00  0.000E+00
  2.999E-01  3.266E-01  0.000E+00  0.000E+00
  3.266E-01  3.556E-01  0.000E+00  0.000E+00
  3.556E-01  3.873E-01  0.000E+00  0.000E+00
  3.873E-01  4.217E-01  0.000E+00  0.000E+00
  4.217E-01  4.592E-01  0.000E+00  0.000E+00
  4.592E-01  5.000E-01  0.000E+00  0.000E+00


 # double differential distributions
 # number of solid angle intervals           1
 # Block n:            1     0.00000000      :   6.28318548    
  1.000E-04  1.089E-04  1.930E-07  9.900E+01  0.000E+00  6.283E+00
  1.089E-04  1.186E-04  2.240E-07  9.900E+01  0.000E+00  6.283E+00
  1.186E-04  1.291E-04  0.000E+00  0.000E+00  0.000E+00  6.283E+00
  1.291E-04  1.406E-04  0.000E+00  0.000E+00  0.000E+00  6.283E+00
  1.406E-04  1.531E-04  0.000E+00  0.000E+00  0.000E+00  6.283E+00
  1.531E-04  1.667E-04  0.000E+00  0.000E+00  0.000E+00  6.283E+00
  1.667E-04  1.815E-04  0.000E+00  0.000E+00  0.000E+00  6.283E+00
  1.815E-04  1.977E-04  1.038E-07  9.900E+01  0.000E+00  6.283E+00
  1.977E-04  2.152E-04  0.000E+00  0.000E+00  0.000E+00  6.283E+00
  2.152E-04  2.344E-04  9.690E-08  9.900E+01  0.000E+00  6.283E+00
  2.344E-04  2.552E-04  0.000E+00  0.000E+00  0.000E+00  6.283E+00
  2.552E-04  2.779E-04  8.475E-08  9.900E+01  0.000E+00  6.283E+00
  2.779E-04  3.026E-04  1.086E-07  9.900E+01  0.000E+00  6.283E+00
  3.026E-04  3.295E-04  0.000E+00  0.000E+00  0.000E+00  6.283E+00
  3.295E-04  3.588E-04  5.658E-08  9.900E+01  0.000E+00  6.283E+00
  3.588E-04  3.907E-04  2.475E-07  6.880E+01  0.000E+00  6.283E+00
  3.907E-04  4.254E-04  1.940E-07  6.743E+01  0.000E+00  6.283E+00
  4.254E-04  4.632E-04  4.339E-08  9.900E+01  0.000E+00  6.283E+00
  4.632E-04  5.044E-04  2.689E-07  4.484E+01  0.000E+00  6.283E+00
  5.044E-04  5.493E-04  0.000E+00  0.000E+00  0.000E+00  6.283E+00
  5.493E-04  5.981E-04  1.734E-07  4.771E+01  0.000E+00  6.283E+00
  5.981E-04  6.513E-04  2.585E-07  5.520E+01  0.000E+00  6.283E+00
  6.513E-04  7.092E-04  1.691E-07  6.453E+01  0.000E+00  6.283E+00
  7.092E-04  7.722E-04  1.767E-07  3.163E+01  0.000E+00  6.283E+00
  7.722E-04  8.409E-04  8.345E-08  9.900E+01  0.000E+00  6.283E+00
  8.409E-04  9.157E-04  1.085E-07  4.287E+01  0.000E+00  6.283E+00
  9.157E-04  9.971E-04  6.476E-08  6.764E+01  0.000E+00  6.283E+00
  9.971E-04  1.086E-03  2.111E-07  5.276E+01  0.000E+00  6.283E+00
  1.086E-03  1.182E-03  2.040E-07  5.558E+01  0.000E+00  6.283E+00
  1.182E-03  1.287E-03  1.547E-07  3.384E+01  0.000E+00  6.283E+00
  1.287E-03  1.402E-03  2.190E-07  2.922E+01  0.000E+00  6.283E+00
  1.402E-03  1.526E-03  1.217E-07  4.138E+01  0.000E+00  6.283E+00
  1.526E-03  1.662E-03  1.937E-07  3.918E+01  0.000E+00  6.283E+00
  1.662E-03  1.810E-03  2.775E-07  2.636E+01  0.000E+00  6.283E+00
  1.810E-03  1.971E-03  3.054E-07  5.627E+01  0.000E+00  6.283E+00
  1.971E-03  2.146E-03  2.740E-07  2.690E+01  0.000E+00  6.283E+00
  2.146E-03  2.337E-03  1.595E-07  2.815E+01  0.000E+00  6.283E+00
  2.337E-03  2.545E-03  5.165E-07  2.811E+01  0.000E+00  6.283E+00
  2.545E-03  2.771E-03  3.505E-07  2.596E+01  0.000E+00  6.283E+00
  2.771E-03  3.017E-03  3.016E-07  2.827E+01  0.000E+00  6.283E+00
  3.017E-03  3.285E-03  3.850E-07  8.934E+00  0.000E+00  6.283E+00
  3.285E-03  3.577E-03  3.834E-07  1.306E+01  0.000E+00  6.283E+00
  3.577E-03  3.895E-03  3.566E-07  1.675E+01  0.000E+00  6.283E+00
  3.895E-03  4.242E-03  5.328E-07  2.362E+01  0.000E+00  6.283E+00
  4.242E-03  4.619E-03  2.976E-07  1.073E+01  0.000E+00  6.283E+00
  4.619E-03  5.030E-03  4.062E-07  8.892E+00  0.000E+00  6.283E+00
  5.030E-03  5.477E-03  4.775E-07  8.765E+00  0.000E+00  6.283E+00
  5.477E-03  5.964E-03  4.549E-07  1.814E+01  0.000E+00  6.283E+00
  5.964E-03  6.494E-03  5.353E-07  1.055E+01  0.000E+00  6.283E+00
  6.494E-03  7.071E-03  5.236E-07  4.981E+00  0.000E+00  6.283E+00
  7.071E-03  7.700E-03  4.847E-07  1.197E+01  0.000E+00  6.283E+00
  7.700E-03  8.384E-03  5.510E-07  9.146E+00  0.000E+00  6.283E+00
  8.384E-03  9.130E-03  5.674E-07  3.699E+00  0.000E+00  6.283E+00
  9.130E-03  9.941E-03  6.138E-07  5.723E+00  0.000E+00  6.283E+00
  9.941E-03  1.083E-02  6.720E-07  8.973E+00  0.000E+00  6.283E+00
  1.083E-02  1.179E-02  7.035E-07  7.005E+00  0.000E+00  6.283E+00
  1.179E-02  1.284E-02  7.580E-07  3.627E+00  0.000E+00  6.283E+00
  1.284E-02  1.398E-02  6.850E-07  4.707E+00  0.000E+00  6.283E+00
  1.398E-02  1.522E-02  7.262E-07  7.356E+00  0.000E+00  6.283E+00
  1.522E-02  1.657E-02  8.061E-07  2.924E+00  0.000E+00  6.283E+00
  1.657E-02  1.805E-02  8.609E-07  4.592E+00  0.000E+00  6.283E+00
  1.805E-02  1.965E-02  8.906E-07  4.209E+00  0.000E+00  6.283E+00
  1.965E-02  2.140E-02  9.765E-07  2.419E+00  0.000E+00  6.283E+00
  2.140E-02  2.330E-02  9.375E-07  3.582E+00  0.000E+00  6.283E+00
  2.330E-02  2.537E-02  9.006E-07  2.828E+00  0.000E+00  6.283E+00
  2.537E-02  2.763E-02  1.010E-06  3.934E+00  0.000E+00  6.283E+00
  2.763E-02  3.008E-02  1.037E-06  2.897E+00  0.000E+00  6.283E+00
  3.008E-02  3.276E-02  1.079E-06  4.409E+00  0.000E+00  6.283E+00
  3.276E-02  3.567E-02  1.075E-06  1.484E+00  0.000E+00  6.283E+00
  3.567E-02  3.884E-02  1.108E-06  2.894E+00  0.000E+00  6.283E+00
  3.884E-02  4.229E-02  1.196E-06  1.937E+00  0.000E+00  6.283E+00
  4.229E-02  4.605E-02  1.192E-06  1.499E+00  0.000E+00  6.283E+00
  4.605E-02  5.015E-02  1.216E-06  1.132E+00  0.000E+00  6.283E+00
  5.015E-02  5.461E-02  1.293E-06  9.026E-01  0.000E+00  6.283E+00
  5.461E-02  5.946E-02  1.272E-06  1.960E+00  0.000E+00  6.283E+00
  5.946E-02  6.475E-02  1.303E-06  2.017E+00  0.000E+00  6.283E+00
  6.475E-02  7.050E-02  1.334E-06  6.963E-01  0.000E+00  6.283E+00
  7.050E-02  7.677E-02  1.366E-06  1.352E+00  0.000E+00  6.283E+00
  7.677E-02  8.360E-02  1.427E-06  1.065E+00  0.000E+00  6.283E+00
  8.360E-02  9.103E-02  1.436E-06  1.874E+00  0.000E+00  6.283E+00
  9.103E-02  9.912E-02  1.469E-06  1.010E+00  0.000E+00  6.283E+00
  9.912E-02  1.079E-01  1.542E-06  1.116E+00  0.000E+00  6.283E+00
  1.079E-01  1.175E-01  1.583E-06  1.995E-01  0.000E+00  6.283E+00
  1.175E-01  1.280E-01  1.656E-06  1.063E+00  0.000E+00  6.283E+00
  1.280E-01  1.394E-01  1.685E-06  7.259E-01  0.000E+00  6.283E+00
  1.394E-01  1.517E-01  1.674E-06  4.813E-01  0.000E+00  6.283E+00
  1.517E-01  1.652E-01  1.386E-06  1.181E+00  0.000E+00  6.283E+00
  1.652E-01  1.799E-01  9.603E-07  1.209E+00  0.000E+00  6.283E+00
  1.799E-01  1.959E-01  4.842E-07  1.259E+00  0.000E+00  6.283E+00
  1.959E-01  2.133E-01  2.456E-08  6.703E+00  0.000E+00  6.283E+00
  2.133E-01  2.323E-01  0.000E+00  0.000E+00  0.000E+00  6.283E+00
  2.323E-01  2.530E-01  0.000E+00  0.000E+00  0.000E+00  6.283E+00
  2.530E-01  2.754E-01  0.000E+00  0.000E+00  0.000E+00  6.283E+00
  2.754E-01  2.999E-01  0.000E+00  0.000E+00  0.000E+00  6.283E+00
  2.999E-01  3.266E-01  0.000E+00  0.000E+00  0.000E+00  6.283E+00
  3.266E-01  3.556E-01  0.000E+00  0.000E+00  0.000E+00  6.283E+00
  3.556E-01  3.873E-01  0.000E+00  0.000E+00  0.000E+00  6.283E+00
  3.873E-01  4.217E-01  0.000E+00  0.000E+00  0.000E+00  6.283E+00
  4.217E-01  4.592E-01  0.000E+00  0.000E+00  0.000E+00  6.283E+00
  4.592E-01  5.000E-01  0.000E+00  0.000E+00  0.000E+00  6.283E+00
  5.000E-01  5.000E-01  0.000E+00  0.000E+00  0.000E+00  6.283E+00

  1.000E-04  1.000E-04  0.000E+00  0.000E+00  6.283E+00  6.283E+00
  1.089E-04  1.089E-04  0.000E+00  0.000E+00  6.283E+00  6.283E+00
  1.186E-04  1.186E-04  0.000E+00  0.000E+00  6.283E+00  6.283E+00
  1.291E-04  1.291E-04  0.000E+00  0.000E+00  6.283E+00  6.283E+00
  1.406E-04  1.406E-04  0.000E+00  0.000E+00  6.283E+00  6.283E+00
  1.531E-04  1.531E-04  0.000E+00  0.000E+00  6.283E+00  6.283E+00
  1.667E-04  1.667E-04  0.000E+00  0.000E+00  6.283E+00  6.283E+00
  1.815E-04  1.815E-04  0.000E+00  0.000E+00  6.283E+00  6.283E+00
  1.977E-04  1.977E-04  0.000E+00  0.000E+00  6.283E+00  6.283E+00
  2.152E-04  2.152E-04  0.000E+00  0.000E+00  6.283E+00  6.283E+00
  2.344E-04  2.344E-04  0.000E+00  0.000E+00  6.283E+00  6.283E+00
  2.552E-04  2.552E-04  0.000E+00  0.000E+00  6.283E+00  6.283E+00
  2.779E-04  2.779E-04  0.000E+00  0.000E+00  6.283E+00  6.283E+00
  3.026E-04  3.026E-04  0.000E+00  0.000E+00  6.283E+00  6.283E+00
  3.295E-04  3.295E-04  0.000E+00  0.000E+00  6.283E+00  6.283E+00
  3.588E-04  3.588E-04  0.000E+00  0.000E+00  6.283E+00  6.283E+00
  3.907E-04  3.907E-04  0.000E+00  0.000E+00  6.283E+00  6.283E+00
  4.254E-04  4.254E-04  0.000E+00  0.000E+00  6.283E+00  6.283E+00
  4.632E-04  4.632E-04  0.000E+00  0.000E+00  6.283E+00  6.283E+00
  5.044E-04  5.044E-04  0.000E+00  0.000E+00  6.283E+00  6.283E+00
  5.493E-04  5.493E-04  0.000E+00  0.000E+00  6.283E+00  6.283E+00
  5.981E-04  5.981E-04  0.000E+00  0.000E+00  6.283E+00  6.283E+00
  6.513E-04  6.513E-04  0.000E+00  0.000E+00  6.283E+00  6.283E+00
  7.092E-04  7.092E-04  0.000E+00  0.000E+00  6.283E+00  6.283E+00
  7.722E-04  7.722E-04  0.000E+00  0.000E+00  6.283E+00  6.283E+00
  8.409E-04  8.409E-04  0.000E+00  0.000E+00  6.283E+00  6.283E+00
  9.157E-04  9.157E-04  0.000E+00  0.000E+00  6.283E+00  6.283E+00
  9.971E-04  9.971E-04  0.000E+00  0.000E+00  6.283E+00  6.283E+00
  1.086E-03  1.086E-03  0.000E+00  0.000E+00  6.283E+00  6.283E+00
  1.182E-03  1.182E-03  0.000E+00  0.000E+00  6.283E+00  6.283E+00
  1.287E-03  1.287E-03  0.000E+00  0.000E+00  6.283E+00  6.283E+00
  1.402E-03  1.402E-03  0.000E+00  0.000E+00  6.283E+00  6.283E+00
  1.526E-03  1.526E-03  0.000E+00  0.000E+00  6.283E+00  6.283E+00
  1.662E-03  1.662E-03  0.000E+00  0.000E+00  6.283E+00  6.283E+00
  1.810E-03  1.810E-03  0.000E+00  0.000E+00  6.283E+00  6.283E+00
  1.971E-03  1.971E-03  0.000E+00  0.000E+00  6.283E+00  6.283E+00
  2.146E-03  2.146E-03  0.000E+00  0.000E+00  6.283E+00  6.283E+00
  2.337E-03  2.337E-03  0.000E+00  0.000E+00  6.283E+00  6.283E+00
  2.545E-03  2.545E-03  0.000E+00  0.000E+00  6.283E+00  6.283E+00
  2.771E-03  2.771E-03  0.000E+00  0.000E+00  6.283E+00  6.283E+00
  3.017E-03  3.017E-03  0.000E+00  0.000E+00  6.283E+00  6.283E+00
  3.285E-03  3.285E-03  0.000E+00  0.000E+00  6.283E+00  6.283E+00
  3.577E-03  3.577E-03  0.000E+00  0.000E+00  6.283E+00  6.283E+00
  3.895E-03  3.895E-03  0.000E+00  0.000E+00  6.283E+00  6.283E+00
  4.242E-03  4.242E-03  0.000E+00  0.000E+00  6.283E+00  6.283E+00
  4.619E-03  4.619E-03  0.000E+00  0.000E+00  6.283E+00  6.283E+00
  5.030E-03  5.030E-03  0.000E+00  0.000E+00  6.283E+00  6.283E+00
  5.477E-03  5.477E-03  0.000E+00  0.000E+00  6.283E+00  6.283E+00
  5.964E-03  5.964E-03  0.000E+00  0.000E+00  6.283E+00  6.283E+00
  6.494E-03  6.494E-03  0.000E+00  0.000E+00  6.283E+00  6.283E+00
  7.071E-03  7.071E-03  0.000E+00  0.000E+00  6.283E+00  6.283E+00
  7.700E-03  7.700E-03  0.000E+00  0.000E+00  6.283E+00  6.283E+00
  8.384E-03  8.384E-03  0.000E+00  0.000E+00  6.283E+00  6.283E+00
  9.130E-03  9.130E-03  0.000E+00  0.000E+00  6.283E+00  6.283E+00
  9.941E-03  9.941E-03  0.000E+00  0.000E+00  6.283E+00  6.283E+00
  1.083E-02  1.083E-02  0.000E+00  0.000E+00  6.283E+00  6.283E+00
  1.179E-02  1.179E-02  0.000E+00  0.000E+00  6.283E+00  6.283E+00
  1.284E-02  1.284E-02  0.000E+00  0.000E+00  6.283E+00  6.283E+00
  1.398E-02  1.398E-02  0.000E+00  0.000E+00  6.283E+00  6.283E+00
  1.522E-02  1.522E-02  0.000E+00  0.000E+00  6.283E+00  6.283E+00
  1.657E-02  1.657E-02  0.000E+00  0.000E+00  6.283E+00  6.283E+00
  1.805E-02  1.805E-02  0.000E+00  0.000E+00  6.283E+00  6.283E+00
  1.965E-02  1.965E-02  0.000E+00  0.000E+00  6.283E+00  6.283E+00
  2.140E-02  2.140E-02  0.000E+00  0.000E+00  6.283E+00  6.283E+00
  2.330E-02  2.330E-02  0.000E+00  0.000E+00  6.283E+00  6.283E+00
  2.537E-02  2.537E-02  0.000E+00  0.000E+00  6.283E+00  6.283E+00
  2.763E-02  2.763E-02  0.000E+00  0.000E+00  6.283E+00  6.283E+00
  3.008E-02  3.008E-02  0.000E+00  0.000E+00  6.283E+00  6.283E+00
  3.276E-02  3.276E-02  0.000E+00  0.000E+00  6.283E+00  6.283E+00
  3.567E-02  3.567E-02  0.000E+00  0.000E+00  6.283E+00  6.283E+00
  3.884E-02  3.884E-02  0.000E+00  0.000E+00  6.283E+00  6.283E+00
  4.229E-02  4.229E-02  0.000E+00  0.000E+00  6.283E+00  6.283E+00
  4.605E-02  4.605E-02  0.000E+00  0.000E+00  6.283E+00  6.283E+00
  5.015E-02  5.015E-02  0.000E+00  0.000E+00  6.283E+00  6.283E+00
  5.461E-02  5.461E-02  0.000E+00  0.000E+00  6.283E+00  6.283E+00
  5.946E-02  5.946E-02  0.000E+00  0.000E+00  6.283E+00  6.283E+00
  6.475E-02  6.475E-02  0.000E+00  0.000E+00  6.283E+00  6.283E+00
  7.050E-02  7.050E-02  0.000E+00  0.000E+00  6.283E+00  6.283E+00
  7.677E-02  7.677E-02  0.000E+00  0.000E+00  6.283E+00  6.283E+00
  8.360E-02  8.360E-02  0.000E+00  0.000E+00  6.283E+00  6.283E+00
  9.103E-02  9.103E-02  0.000E+00  0.000E+00  6.283E+00  6.283E+00
  9.912E-02  9.912E-02  0.000E+00  0.000E+00  6.283E+00  6.283E+00
  1.079E-01  1.079E-01  0.000E+00  0.000E+00  6.283E+00  6.283E+00
  1.175E-01  1.175E-01  0.000E+00  0.000E+00  6.283E+00  6.283E+00
  1.280E-01  1.280E-01  0.000E+00  0.000E+00  6.283E+00  6.283E+00
  1.394E-01  1.394E-01  0.000E+00  0.000E+00  6.283E+00  6.283E+00
  1.517E-01  1.517E-01  0.000E+00  0.000E+00  6.283E+00  6.283E+00
  1.652E-01  1.652E-01  0.000E+00  0.000E+00  6.283E+00  6.283E+00
  1.799E-01  1.799E-01  0.000E+00  0.000E+00  6.283E+00  6.283E+00
  1.959E-01  1.959E-01  0.000E+00  0.000E+00  6.283E+00  6.283E+00
  2.133E-01  2.133E-01  0.000E+00  0.000E+00  6.283E+00  6.283E+00
  2.323E-01  2.323E-01  0.000E+00  0.000E+00  6.283E+00  6.283E+00
  2.530E-01  2.530E-01  0.000E+00  0.000E+00  6.283E+00  6.283E+00
  2.754E-01  2.754E-01  0.000E+00  0.000E+00  6.283E+00  6.283E+00
  2.999E-01  2.999E-01  0.000E+00  0.000E+00  6.283E+00  6.283E+00
  3.266E-01  3.266E-01  0.000E+00  0.000E+00  6.283E+00  6.283E+00
  3.556E-01  3.556E-01  0.000E+00  0.000E+00  6.283E+00  6.283E+00
  3.873E-01  3.873E-01  0.000E+00  0.000E+00  6.283E+00  6.283E+00
  4.217E-01  4.217E-01  0.000E+00  0.000E+00  6.283E+00  6.283E+00
  4.592E-01  4.592E-01  0.000E+00  0.000E+00  6.283E+00  6.283E+00
  5.000E-01  5.000E-01  0.000E+00  0.000E+00  6.283E+00  6.283E+00
