 # Detector n:            1   BdxCHad   (integrated over solid angle)
 # N. of energy intervals         100
  1.000E-04  1.089E-04  0.000E+00  0.000E+00
  1.089E-04  1.186E-04  0.000E+00  0.000E+00
  1.186E-04  1.291E-04  0.000E+00  0.000E+00
  1.291E-04  1.406E-04  6.391E-06  5.825E+01
  1.406E-04  1.531E-04  8.098E-06  3.376E+01
  1.531E-04  1.667E-04  8.233E-07  9.900E+01
  1.667E-04  1.815E-04  1.724E-06  6.190E+01
  1.815E-04  1.977E-04  1.751E-06  6.496E+01
  1.977E-04  2.152E-04  8.178E-07  9.900E+01
  2.152E-04  2.344E-04  2.963E-06  3.032E+01
  2.344E-04  2.552E-04  3.071E-06  5.723E+01
  2.552E-04  2.779E-04  1.218E-06  6.124E+01
  2.779E-04  3.026E-04  1.079E-06  6.153E+01
  3.026E-04  3.295E-04  1.577E-06  6.329E+01
  3.295E-04  3.588E-04  2.762E-06  5.550E+01
  3.588E-04  3.907E-04  6.818E-06  7.814E+01
  3.907E-04  4.254E-04  3.630E-06  4.152E+01
  4.254E-04  4.632E-04  3.414E-06  2.884E+01
  4.632E-04  5.044E-04  5.758E-06  1.510E+01
  5.044E-04  5.493E-04  4.756E-06  3.352E+01
  5.493E-04  5.981E-04  3.276E-06  1.585E+01
  5.981E-04  6.513E-04  3.115E-06  2.936E+01
  6.513E-04  7.092E-04  4.128E-06  2.267E+01
  7.092E-04  7.722E-04  2.883E-06  2.926E+01
  7.722E-04  8.409E-04  4.530E-06  2.407E+01
  8.409E-04  9.157E-04  4.663E-06  1.656E+01
  9.157E-04  9.971E-04  3.883E-06  3.206E+01
  9.971E-04  1.086E-03  6.513E-06  7.896E+00
  1.086E-03  1.182E-03  6.832E-06  1.508E+01
  1.182E-03  1.287E-03  6.682E-06  2.108E+01
  1.287E-03  1.402E-03  6.310E-06  1.635E+01
  1.402E-03  1.526E-03  5.978E-06  1.256E+01
  1.526E-03  1.662E-03  5.464E-06  1.860E+01
  1.662E-03  1.810E-03  5.438E-06  8.492E+00
  1.810E-03  1.971E-03  5.817E-06  1.366E+01
  1.971E-03  2.146E-03  7.059E-06  1.457E+01
  2.146E-03  2.337E-03  6.634E-06  6.278E+00
  2.337E-03  2.545E-03  6.569E-06  1.249E+01
  2.545E-03  2.771E-03  6.690E-06  8.985E+00
  2.771E-03  3.017E-03  7.624E-06  9.304E+00
  3.017E-03  3.285E-03  6.117E-06  1.199E+01
  3.285E-03  3.577E-03  7.330E-06  1.068E+01
  3.577E-03  3.895E-03  6.623E-06  6.125E+00
  3.895E-03  4.242E-03  6.975E-06  9.794E+00
  4.242E-03  4.619E-03  6.497E-06  6.678E+00
  4.619E-03  5.030E-03  5.339E-06  1.136E+01
  5.030E-03  5.477E-03  5.814E-06  4.052E+00
  5.477E-03  5.964E-03  4.889E-06  9.228E+00
  5.964E-03  6.494E-03  5.484E-06  5.505E+00
  6.494E-03  7.071E-03  3.995E-06  1.306E+01
  7.071E-03  7.700E-03  3.288E-06  1.220E+01
  7.700E-03  8.384E-03  2.253E-06  7.552E+00
  8.384E-03  9.130E-03  1.683E-06  3.791E+00
  9.130E-03  9.941E-03  6.039E-07  9.867E+00
  9.941E-03  1.083E-02  0.000E+00  0.000E+00
  1.083E-02  1.179E-02  0.000E+00  0.000E+00
  1.179E-02  1.284E-02  0.000E+00  0.000E+00
  1.284E-02  1.398E-02  0.000E+00  0.000E+00
  1.398E-02  1.522E-02  0.000E+00  0.000E+00
  1.522E-02  1.657E-02  0.000E+00  0.000E+00
  1.657E-02  1.805E-02  0.000E+00  0.000E+00
  1.805E-02  1.965E-02  0.000E+00  0.000E+00
  1.965E-02  2.140E-02  0.000E+00  0.000E+00
  2.140E-02  2.330E-02  0.000E+00  0.000E+00
  2.330E-02  2.537E-02  0.000E+00  0.000E+00
  2.537E-02  2.763E-02  0.000E+00  0.000E+00
  2.763E-02  3.008E-02  0.000E+00  0.000E+00
  3.008E-02  3.276E-02  0.000E+00  0.000E+00
  3.276E-02  3.567E-02  0.000E+00  0.000E+00
  3.567E-02  3.884E-02  0.000E+00  0.000E+00
  3.884E-02  4.229E-02  0.000E+00  0.000E+00
  4.229E-02  4.605E-02  0.000E+00  0.000E+00
  4.605E-02  5.015E-02  0.000E+00  0.000E+00
  5.015E-02  5.461E-02  0.000E+00  0.000E+00
  5.461E-02  5.946E-02  0.000E+00  0.000E+00
  5.946E-02  6.475E-02  0.000E+00  0.000E+00
  6.475E-02  7.050E-02  0.000E+00  0.000E+00
  7.050E-02  7.677E-02  0.000E+00  0.000E+00
  7.677E-02  8.360E-02  0.000E+00  0.000E+00
  8.360E-02  9.103E-02  0.000E+00  0.000E+00
  9.103E-02  9.912E-02  0.000E+00  0.000E+00
  9.912E-02  1.079E-01  0.000E+00  0.000E+00
  1.079E-01  1.175E-01  0.000E+00  0.000E+00
  1.175E-01  1.280E-01  0.000E+00  0.000E+00
  1.280E-01  1.394E-01  0.000E+00  0.000E+00
  1.394E-01  1.517E-01  0.000E+00  0.000E+00
  1.517E-01  1.652E-01  0.000E+00  0.000E+00
  1.652E-01  1.799E-01  0.000E+00  0.000E+00
  1.799E-01  1.959E-01  0.000E+00  0.000E+00
  1.959E-01  2.133E-01  0.000E+00  0.000E+00
  2.133E-01  2.323E-01  0.000E+00  0.000E+00
  2.323E-01  2.530E-01  0.000E+00  0.000E+00
  2.530E-01  2.754E-01  0.000E+00  0.000E+00
  2.754E-01  2.999E-01  0.000E+00  0.000E+00
  2.999E-01  3.266E-01  0.000E+00  0.000E+00
  3.266E-01  3.556E-01  0.000E+00  0.000E+00
  3.556E-01  3.873E-01  0.000E+00  0.000E+00
  3.873E-01  4.217E-01  0.000E+00  0.000E+00
  4.217E-01  4.592E-01  0.000E+00  0.000E+00
  4.592E-01  5.000E-01  0.000E+00  0.000E+00


 # double differential distributions
 # number of solid angle intervals           1
 # Block n:            1     0.00000000      :   6.28318548    
  1.000E-04  1.089E-04  0.000E+00  0.000E+00  0.000E+00  6.283E+00
  1.089E-04  1.186E-04  0.000E+00  0.000E+00  0.000E+00  6.283E+00
  1.186E-04  1.291E-04  0.000E+00  0.000E+00  0.000E+00  6.283E+00
  1.291E-04  1.406E-04  1.017E-06  5.825E+01  0.000E+00  6.283E+00
  1.406E-04  1.531E-04  1.289E-06  3.376E+01  0.000E+00  6.283E+00
  1.531E-04  1.667E-04  1.310E-07  9.900E+01  0.000E+00  6.283E+00
  1.667E-04  1.815E-04  2.744E-07  6.190E+01  0.000E+00  6.283E+00
  1.815E-04  1.977E-04  2.787E-07  6.496E+01  0.000E+00  6.283E+00
  1.977E-04  2.152E-04  1.302E-07  9.900E+01  0.000E+00  6.283E+00
  2.152E-04  2.344E-04  4.716E-07  3.032E+01  0.000E+00  6.283E+00
  2.344E-04  2.552E-04  4.888E-07  5.723E+01  0.000E+00  6.283E+00
  2.552E-04  2.779E-04  1.939E-07  6.124E+01  0.000E+00  6.283E+00
  2.779E-04  3.026E-04  1.716E-07  6.153E+01  0.000E+00  6.283E+00
  3.026E-04  3.295E-04  2.510E-07  6.329E+01  0.000E+00  6.283E+00
  3.295E-04  3.588E-04  4.395E-07  5.550E+01  0.000E+00  6.283E+00
  3.588E-04  3.907E-04  1.085E-06  7.814E+01  0.000E+00  6.283E+00
  3.907E-04  4.254E-04  5.777E-07  4.152E+01  0.000E+00  6.283E+00
  4.254E-04  4.632E-04  5.434E-07  2.884E+01  0.000E+00  6.283E+00
  4.632E-04  5.044E-04  9.164E-07  1.510E+01  0.000E+00  6.283E+00
  5.044E-04  5.493E-04  7.569E-07  3.352E+01  0.000E+00  6.283E+00
  5.493E-04  5.981E-04  5.214E-07  1.585E+01  0.000E+00  6.283E+00
  5.981E-04  6.513E-04  4.958E-07  2.936E+01  0.000E+00  6.283E+00
  6.513E-04  7.092E-04  6.570E-07  2.267E+01  0.000E+00  6.283E+00
  7.092E-04  7.722E-04  4.589E-07  2.926E+01  0.000E+00  6.283E+00
  7.722E-04  8.409E-04  7.210E-07  2.407E+01  0.000E+00  6.283E+00
  8.409E-04  9.157E-04  7.421E-07  1.656E+01  0.000E+00  6.283E+00
  9.157E-04  9.971E-04  6.179E-07  3.206E+01  0.000E+00  6.283E+00
  9.971E-04  1.086E-03  1.037E-06  7.896E+00  0.000E+00  6.283E+00
  1.086E-03  1.182E-03  1.087E-06  1.508E+01  0.000E+00  6.283E+00
  1.182E-03  1.287E-03  1.063E-06  2.108E+01  0.000E+00  6.283E+00
  1.287E-03  1.402E-03  1.004E-06  1.635E+01  0.000E+00  6.283E+00
  1.402E-03  1.526E-03  9.514E-07  1.256E+01  0.000E+00  6.283E+00
  1.526E-03  1.662E-03  8.696E-07  1.860E+01  0.000E+00  6.283E+00
  1.662E-03  1.810E-03  8.655E-07  8.492E+00  0.000E+00  6.283E+00
  1.810E-03  1.971E-03  9.258E-07  1.366E+01  0.000E+00  6.283E+00
  1.971E-03  2.146E-03  1.123E-06  1.457E+01  0.000E+00  6.283E+00
  2.146E-03  2.337E-03  1.056E-06  6.278E+00  0.000E+00  6.283E+00
  2.337E-03  2.545E-03  1.046E-06  1.249E+01  0.000E+00  6.283E+00
  2.545E-03  2.771E-03  1.065E-06  8.985E+00  0.000E+00  6.283E+00
  2.771E-03  3.017E-03  1.213E-06  9.304E+00  0.000E+00  6.283E+00
  3.017E-03  3.285E-03  9.736E-07  1.199E+01  0.000E+00  6.283E+00
  3.285E-03  3.577E-03  1.167E-06  1.068E+01  0.000E+00  6.283E+00
  3.577E-03  3.895E-03  1.054E-06  6.125E+00  0.000E+00  6.283E+00
  3.895E-03  4.242E-03  1.110E-06  9.794E+00  0.000E+00  6.283E+00
  4.242E-03  4.619E-03  1.034E-06  6.678E+00  0.000E+00  6.283E+00
  4.619E-03  5.030E-03  8.498E-07  1.136E+01  0.000E+00  6.283E+00
  5.030E-03  5.477E-03  9.253E-07  4.052E+00  0.000E+00  6.283E+00
  5.477E-03  5.964E-03  7.781E-07  9.228E+00  0.000E+00  6.283E+00
  5.964E-03  6.494E-03  8.729E-07  5.505E+00  0.000E+00  6.283E+00
  6.494E-03  7.071E-03  6.358E-07  1.306E+01  0.000E+00  6.283E+00
  7.071E-03  7.700E-03  5.232E-07  1.220E+01  0.000E+00  6.283E+00
  7.700E-03  8.384E-03  3.585E-07  7.552E+00  0.000E+00  6.283E+00
  8.384E-03  9.130E-03  2.678E-07  3.791E+00  0.000E+00  6.283E+00
  9.130E-03  9.941E-03  9.611E-08  9.867E+00  0.000E+00  6.283E+00
  9.941E-03  1.083E-02  0.000E+00  0.000E+00  0.000E+00  6.283E+00
  1.083E-02  1.179E-02  0.000E+00  0.000E+00  0.000E+00  6.283E+00
  1.179E-02  1.284E-02  0.000E+00  0.000E+00  0.000E+00  6.283E+00
  1.284E-02  1.398E-02  0.000E+00  0.000E+00  0.000E+00  6.283E+00
  1.398E-02  1.522E-02  0.000E+00  0.000E+00  0.000E+00  6.283E+00
  1.522E-02  1.657E-02  0.000E+00  0.000E+00  0.000E+00  6.283E+00
  1.657E-02  1.805E-02  0.000E+00  0.000E+00  0.000E+00  6.283E+00
  1.805E-02  1.965E-02  0.000E+00  0.000E+00  0.000E+00  6.283E+00
  1.965E-02  2.140E-02  0.000E+00  0.000E+00  0.000E+00  6.283E+00
  2.140E-02  2.330E-02  0.000E+00  0.000E+00  0.000E+00  6.283E+00
  2.330E-02  2.537E-02  0.000E+00  0.000E+00  0.000E+00  6.283E+00
  2.537E-02  2.763E-02  0.000E+00  0.000E+00  0.000E+00  6.283E+00
  2.763E-02  3.008E-02  0.000E+00  0.000E+00  0.000E+00  6.283E+00
  3.008E-02  3.276E-02  0.000E+00  0.000E+00  0.000E+00  6.283E+00
  3.276E-02  3.567E-02  0.000E+00  0.000E+00  0.000E+00  6.283E+00
  3.567E-02  3.884E-02  0.000E+00  0.000E+00  0.000E+00  6.283E+00
  3.884E-02  4.229E-02  0.000E+00  0.000E+00  0.000E+00  6.283E+00
  4.229E-02  4.605E-02  0.000E+00  0.000E+00  0.000E+00  6.283E+00
  4.605E-02  5.015E-02  0.000E+00  0.000E+00  0.000E+00  6.283E+00
  5.015E-02  5.461E-02  0.000E+00  0.000E+00  0.000E+00  6.283E+00
  5.461E-02  5.946E-02  0.000E+00  0.000E+00  0.000E+00  6.283E+00
  5.946E-02  6.475E-02  0.000E+00  0.000E+00  0.000E+00  6.283E+00
  6.475E-02  7.050E-02  0.000E+00  0.000E+00  0.000E+00  6.283E+00
  7.050E-02  7.677E-02  0.000E+00  0.000E+00  0.000E+00  6.283E+00
  7.677E-02  8.360E-02  0.000E+00  0.000E+00  0.000E+00  6.283E+00
  8.360E-02  9.103E-02  0.000E+00  0.000E+00  0.000E+00  6.283E+00
  9.103E-02  9.912E-02  0.000E+00  0.000E+00  0.000E+00  6.283E+00
  9.912E-02  1.079E-01  0.000E+00  0.000E+00  0.000E+00  6.283E+00
  1.079E-01  1.175E-01  0.000E+00  0.000E+00  0.000E+00  6.283E+00
  1.175E-01  1.280E-01  0.000E+00  0.000E+00  0.000E+00  6.283E+00
  1.280E-01  1.394E-01  0.000E+00  0.000E+00  0.000E+00  6.283E+00
  1.394E-01  1.517E-01  0.000E+00  0.000E+00  0.000E+00  6.283E+00
  1.517E-01  1.652E-01  0.000E+00  0.000E+00  0.000E+00  6.283E+00
  1.652E-01  1.799E-01  0.000E+00  0.000E+00  0.000E+00  6.283E+00
  1.799E-01  1.959E-01  0.000E+00  0.000E+00  0.000E+00  6.283E+00
  1.959E-01  2.133E-01  0.000E+00  0.000E+00  0.000E+00  6.283E+00
  2.133E-01  2.323E-01  0.000E+00  0.000E+00  0.000E+00  6.283E+00
  2.323E-01  2.530E-01  0.000E+00  0.000E+00  0.000E+00  6.283E+00
  2.530E-01  2.754E-01  0.000E+00  0.000E+00  0.000E+00  6.283E+00
  2.754E-01  2.999E-01  0.000E+00  0.000E+00  0.000E+00  6.283E+00
  2.999E-01  3.266E-01  0.000E+00  0.000E+00  0.000E+00  6.283E+00
  3.266E-01  3.556E-01  0.000E+00  0.000E+00  0.000E+00  6.283E+00
  3.556E-01  3.873E-01  0.000E+00  0.000E+00  0.000E+00  6.283E+00
  3.873E-01  4.217E-01  0.000E+00  0.000E+00  0.000E+00  6.283E+00
  4.217E-01  4.592E-01  0.000E+00  0.000E+00  0.000E+00  6.283E+00
  4.592E-01  5.000E-01  0.000E+00  0.000E+00  0.000E+00  6.283E+00
  5.000E-01  5.000E-01  0.000E+00  0.000E+00  0.000E+00  6.283E+00

  1.000E-04  1.000E-04  0.000E+00  0.000E+00  6.283E+00  6.283E+00
  1.089E-04  1.089E-04  0.000E+00  0.000E+00  6.283E+00  6.283E+00
  1.186E-04  1.186E-04  0.000E+00  0.000E+00  6.283E+00  6.283E+00
  1.291E-04  1.291E-04  0.000E+00  0.000E+00  6.283E+00  6.283E+00
  1.406E-04  1.406E-04  0.000E+00  0.000E+00  6.283E+00  6.283E+00
  1.531E-04  1.531E-04  0.000E+00  0.000E+00  6.283E+00  6.283E+00
  1.667E-04  1.667E-04  0.000E+00  0.000E+00  6.283E+00  6.283E+00
  1.815E-04  1.815E-04  0.000E+00  0.000E+00  6.283E+00  6.283E+00
  1.977E-04  1.977E-04  0.000E+00  0.000E+00  6.283E+00  6.283E+00
  2.152E-04  2.152E-04  0.000E+00  0.000E+00  6.283E+00  6.283E+00
  2.344E-04  2.344E-04  0.000E+00  0.000E+00  6.283E+00  6.283E+00
  2.552E-04  2.552E-04  0.000E+00  0.000E+00  6.283E+00  6.283E+00
  2.779E-04  2.779E-04  0.000E+00  0.000E+00  6.283E+00  6.283E+00
  3.026E-04  3.026E-04  0.000E+00  0.000E+00  6.283E+00  6.283E+00
  3.295E-04  3.295E-04  0.000E+00  0.000E+00  6.283E+00  6.283E+00
  3.588E-04  3.588E-04  0.000E+00  0.000E+00  6.283E+00  6.283E+00
  3.907E-04  3.907E-04  0.000E+00  0.000E+00  6.283E+00  6.283E+00
  4.254E-04  4.254E-04  0.000E+00  0.000E+00  6.283E+00  6.283E+00
  4.632E-04  4.632E-04  0.000E+00  0.000E+00  6.283E+00  6.283E+00
  5.044E-04  5.044E-04  0.000E+00  0.000E+00  6.283E+00  6.283E+00
  5.493E-04  5.493E-04  0.000E+00  0.000E+00  6.283E+00  6.283E+00
  5.981E-04  5.981E-04  0.000E+00  0.000E+00  6.283E+00  6.283E+00
  6.513E-04  6.513E-04  0.000E+00  0.000E+00  6.283E+00  6.283E+00
  7.092E-04  7.092E-04  0.000E+00  0.000E+00  6.283E+00  6.283E+00
  7.722E-04  7.722E-04  0.000E+00  0.000E+00  6.283E+00  6.283E+00
  8.409E-04  8.409E-04  0.000E+00  0.000E+00  6.283E+00  6.283E+00
  9.157E-04  9.157E-04  0.000E+00  0.000E+00  6.283E+00  6.283E+00
  9.971E-04  9.971E-04  0.000E+00  0.000E+00  6.283E+00  6.283E+00
  1.086E-03  1.086E-03  0.000E+00  0.000E+00  6.283E+00  6.283E+00
  1.182E-03  1.182E-03  0.000E+00  0.000E+00  6.283E+00  6.283E+00
  1.287E-03  1.287E-03  0.000E+00  0.000E+00  6.283E+00  6.283E+00
  1.402E-03  1.402E-03  0.000E+00  0.000E+00  6.283E+00  6.283E+00
  1.526E-03  1.526E-03  0.000E+00  0.000E+00  6.283E+00  6.283E+00
  1.662E-03  1.662E-03  0.000E+00  0.000E+00  6.283E+00  6.283E+00
  1.810E-03  1.810E-03  0.000E+00  0.000E+00  6.283E+00  6.283E+00
  1.971E-03  1.971E-03  0.000E+00  0.000E+00  6.283E+00  6.283E+00
  2.146E-03  2.146E-03  0.000E+00  0.000E+00  6.283E+00  6.283E+00
  2.337E-03  2.337E-03  0.000E+00  0.000E+00  6.283E+00  6.283E+00
  2.545E-03  2.545E-03  0.000E+00  0.000E+00  6.283E+00  6.283E+00
  2.771E-03  2.771E-03  0.000E+00  0.000E+00  6.283E+00  6.283E+00
  3.017E-03  3.017E-03  0.000E+00  0.000E+00  6.283E+00  6.283E+00
  3.285E-03  3.285E-03  0.000E+00  0.000E+00  6.283E+00  6.283E+00
  3.577E-03  3.577E-03  0.000E+00  0.000E+00  6.283E+00  6.283E+00
  3.895E-03  3.895E-03  0.000E+00  0.000E+00  6.283E+00  6.283E+00
  4.242E-03  4.242E-03  0.000E+00  0.000E+00  6.283E+00  6.283E+00
  4.619E-03  4.619E-03  0.000E+00  0.000E+00  6.283E+00  6.283E+00
  5.030E-03  5.030E-03  0.000E+00  0.000E+00  6.283E+00  6.283E+00
  5.477E-03  5.477E-03  0.000E+00  0.000E+00  6.283E+00  6.283E+00
  5.964E-03  5.964E-03  0.000E+00  0.000E+00  6.283E+00  6.283E+00
  6.494E-03  6.494E-03  0.000E+00  0.000E+00  6.283E+00  6.283E+00
  7.071E-03  7.071E-03  0.000E+00  0.000E+00  6.283E+00  6.283E+00
  7.700E-03  7.700E-03  0.000E+00  0.000E+00  6.283E+00  6.283E+00
  8.384E-03  8.384E-03  0.000E+00  0.000E+00  6.283E+00  6.283E+00
  9.130E-03  9.130E-03  0.000E+00  0.000E+00  6.283E+00  6.283E+00
  9.941E-03  9.941E-03  0.000E+00  0.000E+00  6.283E+00  6.283E+00
  1.083E-02  1.083E-02  0.000E+00  0.000E+00  6.283E+00  6.283E+00
  1.179E-02  1.179E-02  0.000E+00  0.000E+00  6.283E+00  6.283E+00
  1.284E-02  1.284E-02  0.000E+00  0.000E+00  6.283E+00  6.283E+00
  1.398E-02  1.398E-02  0.000E+00  0.000E+00  6.283E+00  6.283E+00
  1.522E-02  1.522E-02  0.000E+00  0.000E+00  6.283E+00  6.283E+00
  1.657E-02  1.657E-02  0.000E+00  0.000E+00  6.283E+00  6.283E+00
  1.805E-02  1.805E-02  0.000E+00  0.000E+00  6.283E+00  6.283E+00
  1.965E-02  1.965E-02  0.000E+00  0.000E+00  6.283E+00  6.283E+00
  2.140E-02  2.140E-02  0.000E+00  0.000E+00  6.283E+00  6.283E+00
  2.330E-02  2.330E-02  0.000E+00  0.000E+00  6.283E+00  6.283E+00
  2.537E-02  2.537E-02  0.000E+00  0.000E+00  6.283E+00  6.283E+00
  2.763E-02  2.763E-02  0.000E+00  0.000E+00  6.283E+00  6.283E+00
  3.008E-02  3.008E-02  0.000E+00  0.000E+00  6.283E+00  6.283E+00
  3.276E-02  3.276E-02  0.000E+00  0.000E+00  6.283E+00  6.283E+00
  3.567E-02  3.567E-02  0.000E+00  0.000E+00  6.283E+00  6.283E+00
  3.884E-02  3.884E-02  0.000E+00  0.000E+00  6.283E+00  6.283E+00
  4.229E-02  4.229E-02  0.000E+00  0.000E+00  6.283E+00  6.283E+00
  4.605E-02  4.605E-02  0.000E+00  0.000E+00  6.283E+00  6.283E+00
  5.015E-02  5.015E-02  0.000E+00  0.000E+00  6.283E+00  6.283E+00
  5.461E-02  5.461E-02  0.000E+00  0.000E+00  6.283E+00  6.283E+00
  5.946E-02  5.946E-02  0.000E+00  0.000E+00  6.283E+00  6.283E+00
  6.475E-02  6.475E-02  0.000E+00  0.000E+00  6.283E+00  6.283E+00
  7.050E-02  7.050E-02  0.000E+00  0.000E+00  6.283E+00  6.283E+00
  7.677E-02  7.677E-02  0.000E+00  0.000E+00  6.283E+00  6.283E+00
  8.360E-02  8.360E-02  0.000E+00  0.000E+00  6.283E+00  6.283E+00
  9.103E-02  9.103E-02  0.000E+00  0.000E+00  6.283E+00  6.283E+00
  9.912E-02  9.912E-02  0.000E+00  0.000E+00  6.283E+00  6.283E+00
  1.079E-01  1.079E-01  0.000E+00  0.000E+00  6.283E+00  6.283E+00
  1.175E-01  1.175E-01  0.000E+00  0.000E+00  6.283E+00  6.283E+00
  1.280E-01  1.280E-01  0.000E+00  0.000E+00  6.283E+00  6.283E+00
  1.394E-01  1.394E-01  0.000E+00  0.000E+00  6.283E+00  6.283E+00
  1.517E-01  1.517E-01  0.000E+00  0.000E+00  6.283E+00  6.283E+00
  1.652E-01  1.652E-01  0.000E+00  0.000E+00  6.283E+00  6.283E+00
  1.799E-01  1.799E-01  0.000E+00  0.000E+00  6.283E+00  6.283E+00
  1.959E-01  1.959E-01  0.000E+00  0.000E+00  6.283E+00  6.283E+00
  2.133E-01  2.133E-01  0.000E+00  0.000E+00  6.283E+00  6.283E+00
  2.323E-01  2.323E-01  0.000E+00  0.000E+00  6.283E+00  6.283E+00
  2.530E-01  2.530E-01  0.000E+00  0.000E+00  6.283E+00  6.283E+00
  2.754E-01  2.754E-01  0.000E+00  0.000E+00  6.283E+00  6.283E+00
  2.999E-01  2.999E-01  0.000E+00  0.000E+00  6.283E+00  6.283E+00
  3.266E-01  3.266E-01  0.000E+00  0.000E+00  6.283E+00  6.283E+00
  3.556E-01  3.556E-01  0.000E+00  0.000E+00  6.283E+00  6.283E+00
  3.873E-01  3.873E-01  0.000E+00  0.000E+00  6.283E+00  6.283E+00
  4.217E-01  4.217E-01  0.000E+00  0.000E+00  6.283E+00  6.283E+00
  4.592E-01  4.592E-01  0.000E+00  0.000E+00  6.283E+00  6.283E+00
  5.000E-01  5.000E-01  0.000E+00  0.000E+00  6.283E+00  6.283E+00
