 # Detector n:            1   BdxCHad   (integrated over solid angle)
 # N. of energy intervals         100
  1.000E-04  1.089E-04  0.000E+00  0.000E+00
  1.089E-04  1.186E-04  1.084E-06  9.900E+01
  1.186E-04  1.291E-04  0.000E+00  0.000E+00
  1.291E-04  1.406E-04  0.000E+00  0.000E+00
  1.406E-04  1.531E-04  8.664E-07  9.900E+01
  1.531E-04  1.667E-04  1.095E-06  9.900E+01
  1.667E-04  1.815E-04  9.720E-07  9.900E+01
  1.815E-04  1.977E-04  0.000E+00  0.000E+00
  1.977E-04  2.152E-04  1.333E-06  6.148E+01
  2.152E-04  2.344E-04  1.155E-06  9.900E+01
  2.344E-04  2.552E-04  6.809E-07  9.900E+01
  2.552E-04  2.779E-04  0.000E+00  0.000E+00
  2.779E-04  3.026E-04  1.037E-06  9.900E+01
  3.026E-04  3.295E-04  1.125E-06  9.900E+01
  3.295E-04  3.588E-04  0.000E+00  0.000E+00
  3.588E-04  3.907E-04  5.199E-07  9.900E+01
  3.907E-04  4.254E-04  2.153E-06  6.359E+01
  4.254E-04  4.632E-04  0.000E+00  0.000E+00
  4.632E-04  5.044E-04  0.000E+00  0.000E+00
  5.044E-04  5.493E-04  0.000E+00  0.000E+00
  5.493E-04  5.981E-04  4.705E-07  6.125E+01
  5.981E-04  6.513E-04  2.251E-07  9.900E+01
  6.513E-04  7.092E-04  2.068E-07  9.900E+01
  7.092E-04  7.722E-04  2.048E-07  9.900E+01
  7.722E-04  8.409E-04  3.058E-07  6.133E+01
  8.409E-04  9.157E-04  4.086E-07  9.900E+01
  9.157E-04  9.971E-04  3.024E-07  9.900E+01
  9.971E-04  1.086E-03  9.873E-07  3.402E+01
  1.086E-03  1.182E-03  1.410E-06  2.232E+01
  1.182E-03  1.287E-03  6.877E-07  3.570E+01
  1.287E-03  1.402E-03  1.716E-06  3.798E+01
  1.402E-03  1.526E-03  1.010E-06  3.368E+01
  1.526E-03  1.662E-03  1.743E-06  3.049E+01
  1.662E-03  1.810E-03  1.690E-06  4.359E+01
  1.810E-03  1.971E-03  2.074E-06  3.109E+01
  1.971E-03  2.146E-03  2.123E-06  3.958E+01
  2.146E-03  2.337E-03  1.304E-06  1.826E+01
  2.337E-03  2.545E-03  1.440E-06  2.404E+01
  2.545E-03  2.771E-03  1.743E-06  2.749E+01
  2.771E-03  3.017E-03  1.377E-06  2.213E+01
  3.017E-03  3.285E-03  2.585E-06  1.260E+01
  3.285E-03  3.577E-03  3.350E-06  3.210E+01
  3.577E-03  3.895E-03  2.030E-06  1.476E+01
  3.895E-03  4.242E-03  2.892E-06  7.166E+00
  4.242E-03  4.619E-03  2.472E-06  1.490E+01
  4.619E-03  5.030E-03  2.124E-06  2.129E+01
  5.030E-03  5.477E-03  3.068E-06  1.403E+01
  5.477E-03  5.964E-03  2.812E-06  2.339E+01
  5.964E-03  6.494E-03  3.250E-06  1.712E+01
  6.494E-03  7.071E-03  3.778E-06  1.947E+01
  7.071E-03  7.700E-03  2.942E-06  9.427E+00
  7.700E-03  8.384E-03  3.435E-06  1.492E+01
  8.384E-03  9.130E-03  4.034E-06  7.853E+00
  9.130E-03  9.941E-03  4.927E-06  2.614E+00
  9.941E-03  1.083E-02  4.628E-06  3.735E+00
  1.083E-02  1.179E-02  4.652E-06  2.459E+00
  1.179E-02  1.284E-02  4.799E-06  4.807E+00
  1.284E-02  1.398E-02  5.339E-06  1.663E+00
  1.398E-02  1.522E-02  4.636E-06  4.615E+00
  1.522E-02  1.657E-02  5.851E-06  8.954E+00
  1.657E-02  1.805E-02  5.626E-06  3.550E+00
  1.805E-02  1.965E-02  5.675E-06  3.659E+00
  1.965E-02  2.140E-02  6.595E-06  4.758E+00
  2.140E-02  2.330E-02  6.548E-06  2.103E+00
  2.330E-02  2.537E-02  6.853E-06  3.099E+00
  2.537E-02  2.763E-02  6.871E-06  3.256E+00
  2.763E-02  3.008E-02  7.442E-06  2.545E+00
  3.008E-02  3.276E-02  7.389E-06  2.024E+00
  3.276E-02  3.567E-02  7.516E-06  2.482E+00
  3.567E-02  3.884E-02  8.239E-06  3.398E+00
  3.884E-02  4.229E-02  7.900E-06  2.927E+00
  4.229E-02  4.605E-02  8.375E-06  2.553E+00
  4.605E-02  5.015E-02  8.583E-06  3.551E+00
  5.015E-02  5.461E-02  8.507E-06  1.991E+00
  5.461E-02  5.946E-02  9.064E-06  4.359E+00
  5.946E-02  6.475E-02  8.846E-06  3.317E+00
  6.475E-02  7.050E-02  8.729E-06  1.507E+00
  7.050E-02  7.677E-02  9.053E-06  1.855E+00
  7.677E-02  8.360E-02  8.823E-06  1.315E+00
  8.360E-02  9.103E-02  8.521E-06  1.789E+00
  9.103E-02  9.912E-02  8.319E-06  2.018E+00
  9.912E-02  1.079E-01  8.136E-06  2.715E+00
  1.079E-01  1.175E-01  7.476E-06  9.543E-01
  1.175E-01  1.280E-01  7.398E-06  1.653E+00
  1.280E-01  1.394E-01  7.029E-06  1.797E+00
  1.394E-01  1.517E-01  6.393E-06  1.491E+00
  1.517E-01  1.652E-01  5.812E-06  9.091E-01
  1.652E-01  1.799E-01  5.412E-06  8.635E-01
  1.799E-01  1.959E-01  4.829E-06  5.346E-01
  1.959E-01  2.133E-01  4.473E-06  1.842E+00
  2.133E-01  2.323E-01  3.989E-06  1.137E+00
  2.323E-01  2.530E-01  3.521E-06  1.510E+00
  2.530E-01  2.754E-01  3.072E-06  3.997E-01
  2.754E-01  2.999E-01  2.859E-06  9.309E-01
  2.999E-01  3.266E-01  2.731E-06  1.578E+00
  3.266E-01  3.556E-01  2.768E-06  5.560E-01
  3.556E-01  3.873E-01  2.850E-06  1.043E+00
  3.873E-01  4.217E-01  3.304E-06  1.917E+00
  4.217E-01  4.592E-01  3.936E-06  8.027E-01
  4.592E-01  5.000E-01  2.740E-06  9.587E-01


 # double differential distributions
 # number of solid angle intervals           1
 # Block n:            1     0.00000000      :   6.28318548    
  1.000E-04  1.089E-04  0.000E+00  0.000E+00  0.000E+00  6.283E+00
  1.089E-04  1.186E-04  1.726E-07  9.900E+01  0.000E+00  6.283E+00
  1.186E-04  1.291E-04  0.000E+00  0.000E+00  0.000E+00  6.283E+00
  1.291E-04  1.406E-04  0.000E+00  0.000E+00  0.000E+00  6.283E+00
  1.406E-04  1.531E-04  1.379E-07  9.900E+01  0.000E+00  6.283E+00
  1.531E-04  1.667E-04  1.742E-07  9.900E+01  0.000E+00  6.283E+00
  1.667E-04  1.815E-04  1.547E-07  9.900E+01  0.000E+00  6.283E+00
  1.815E-04  1.977E-04  0.000E+00  0.000E+00  0.000E+00  6.283E+00
  1.977E-04  2.152E-04  2.122E-07  6.148E+01  0.000E+00  6.283E+00
  2.152E-04  2.344E-04  1.838E-07  9.900E+01  0.000E+00  6.283E+00
  2.344E-04  2.552E-04  1.084E-07  9.900E+01  0.000E+00  6.283E+00
  2.552E-04  2.779E-04  0.000E+00  0.000E+00  0.000E+00  6.283E+00
  2.779E-04  3.026E-04  1.650E-07  9.900E+01  0.000E+00  6.283E+00
  3.026E-04  3.295E-04  1.790E-07  9.900E+01  0.000E+00  6.283E+00
  3.295E-04  3.588E-04  0.000E+00  0.000E+00  0.000E+00  6.283E+00
  3.588E-04  3.907E-04  8.275E-08  9.900E+01  0.000E+00  6.283E+00
  3.907E-04  4.254E-04  3.427E-07  6.359E+01  0.000E+00  6.283E+00
  4.254E-04  4.632E-04  0.000E+00  0.000E+00  0.000E+00  6.283E+00
  4.632E-04  5.044E-04  0.000E+00  0.000E+00  0.000E+00  6.283E+00
  5.044E-04  5.493E-04  0.000E+00  0.000E+00  0.000E+00  6.283E+00
  5.493E-04  5.981E-04  7.488E-08  6.125E+01  0.000E+00  6.283E+00
  5.981E-04  6.513E-04  3.582E-08  9.900E+01  0.000E+00  6.283E+00
  6.513E-04  7.092E-04  3.291E-08  9.900E+01  0.000E+00  6.283E+00
  7.092E-04  7.722E-04  3.259E-08  9.900E+01  0.000E+00  6.283E+00
  7.722E-04  8.409E-04  4.867E-08  6.133E+01  0.000E+00  6.283E+00
  8.409E-04  9.157E-04  6.503E-08  9.900E+01  0.000E+00  6.283E+00
  9.157E-04  9.971E-04  4.812E-08  9.900E+01  0.000E+00  6.283E+00
  9.971E-04  1.086E-03  1.571E-07  3.402E+01  0.000E+00  6.283E+00
  1.086E-03  1.182E-03  2.243E-07  2.232E+01  0.000E+00  6.283E+00
  1.182E-03  1.287E-03  1.095E-07  3.570E+01  0.000E+00  6.283E+00
  1.287E-03  1.402E-03  2.731E-07  3.798E+01  0.000E+00  6.283E+00
  1.402E-03  1.526E-03  1.607E-07  3.368E+01  0.000E+00  6.283E+00
  1.526E-03  1.662E-03  2.774E-07  3.049E+01  0.000E+00  6.283E+00
  1.662E-03  1.810E-03  2.690E-07  4.359E+01  0.000E+00  6.283E+00
  1.810E-03  1.971E-03  3.301E-07  3.109E+01  0.000E+00  6.283E+00
  1.971E-03  2.146E-03  3.379E-07  3.958E+01  0.000E+00  6.283E+00
  2.146E-03  2.337E-03  2.076E-07  1.826E+01  0.000E+00  6.283E+00
  2.337E-03  2.545E-03  2.291E-07  2.404E+01  0.000E+00  6.283E+00
  2.545E-03  2.771E-03  2.774E-07  2.749E+01  0.000E+00  6.283E+00
  2.771E-03  3.017E-03  2.192E-07  2.213E+01  0.000E+00  6.283E+00
  3.017E-03  3.285E-03  4.115E-07  1.260E+01  0.000E+00  6.283E+00
  3.285E-03  3.577E-03  5.332E-07  3.210E+01  0.000E+00  6.283E+00
  3.577E-03  3.895E-03  3.231E-07  1.476E+01  0.000E+00  6.283E+00
  3.895E-03  4.242E-03  4.602E-07  7.166E+00  0.000E+00  6.283E+00
  4.242E-03  4.619E-03  3.934E-07  1.490E+01  0.000E+00  6.283E+00
  4.619E-03  5.030E-03  3.381E-07  2.129E+01  0.000E+00  6.283E+00
  5.030E-03  5.477E-03  4.884E-07  1.403E+01  0.000E+00  6.283E+00
  5.477E-03  5.964E-03  4.475E-07  2.339E+01  0.000E+00  6.283E+00
  5.964E-03  6.494E-03  5.172E-07  1.712E+01  0.000E+00  6.283E+00
  6.494E-03  7.071E-03  6.012E-07  1.947E+01  0.000E+00  6.283E+00
  7.071E-03  7.700E-03  4.683E-07  9.427E+00  0.000E+00  6.283E+00
  7.700E-03  8.384E-03  5.467E-07  1.492E+01  0.000E+00  6.283E+00
  8.384E-03  9.130E-03  6.420E-07  7.853E+00  0.000E+00  6.283E+00
  9.130E-03  9.941E-03  7.841E-07  2.614E+00  0.000E+00  6.283E+00
  9.941E-03  1.083E-02  7.365E-07  3.735E+00  0.000E+00  6.283E+00
  1.083E-02  1.179E-02  7.404E-07  2.459E+00  0.000E+00  6.283E+00
  1.179E-02  1.284E-02  7.638E-07  4.807E+00  0.000E+00  6.283E+00
  1.284E-02  1.398E-02  8.497E-07  1.663E+00  0.000E+00  6.283E+00
  1.398E-02  1.522E-02  7.378E-07  4.615E+00  0.000E+00  6.283E+00
  1.522E-02  1.657E-02  9.313E-07  8.954E+00  0.000E+00  6.283E+00
  1.657E-02  1.805E-02  8.954E-07  3.550E+00  0.000E+00  6.283E+00
  1.805E-02  1.965E-02  9.032E-07  3.659E+00  0.000E+00  6.283E+00
  1.965E-02  2.140E-02  1.050E-06  4.758E+00  0.000E+00  6.283E+00
  2.140E-02  2.330E-02  1.042E-06  2.103E+00  0.000E+00  6.283E+00
  2.330E-02  2.537E-02  1.091E-06  3.099E+00  0.000E+00  6.283E+00
  2.537E-02  2.763E-02  1.094E-06  3.256E+00  0.000E+00  6.283E+00
  2.763E-02  3.008E-02  1.184E-06  2.545E+00  0.000E+00  6.283E+00
  3.008E-02  3.276E-02  1.176E-06  2.024E+00  0.000E+00  6.283E+00
  3.276E-02  3.567E-02  1.196E-06  2.482E+00  0.000E+00  6.283E+00
  3.567E-02  3.884E-02  1.311E-06  3.398E+00  0.000E+00  6.283E+00
  3.884E-02  4.229E-02  1.257E-06  2.927E+00  0.000E+00  6.283E+00
  4.229E-02  4.605E-02  1.333E-06  2.553E+00  0.000E+00  6.283E+00
  4.605E-02  5.015E-02  1.366E-06  3.551E+00  0.000E+00  6.283E+00
  5.015E-02  5.461E-02  1.354E-06  1.991E+00  0.000E+00  6.283E+00
  5.461E-02  5.946E-02  1.443E-06  4.359E+00  0.000E+00  6.283E+00
  5.946E-02  6.475E-02  1.408E-06  3.317E+00  0.000E+00  6.283E+00
  6.475E-02  7.050E-02  1.389E-06  1.507E+00  0.000E+00  6.283E+00
  7.050E-02  7.677E-02  1.441E-06  1.855E+00  0.000E+00  6.283E+00
  7.677E-02  8.360E-02  1.404E-06  1.315E+00  0.000E+00  6.283E+00
  8.360E-02  9.103E-02  1.356E-06  1.789E+00  0.000E+00  6.283E+00
  9.103E-02  9.912E-02  1.324E-06  2.018E+00  0.000E+00  6.283E+00
  9.912E-02  1.079E-01  1.295E-06  2.715E+00  0.000E+00  6.283E+00
  1.079E-01  1.175E-01  1.190E-06  9.543E-01  0.000E+00  6.283E+00
  1.175E-01  1.280E-01  1.177E-06  1.653E+00  0.000E+00  6.283E+00
  1.280E-01  1.394E-01  1.119E-06  1.797E+00  0.000E+00  6.283E+00
  1.394E-01  1.517E-01  1.017E-06  1.491E+00  0.000E+00  6.283E+00
  1.517E-01  1.652E-01  9.250E-07  9.091E-01  0.000E+00  6.283E+00
  1.652E-01  1.799E-01  8.614E-07  8.635E-01  0.000E+00  6.283E+00
  1.799E-01  1.959E-01  7.686E-07  5.346E-01  0.000E+00  6.283E+00
  1.959E-01  2.133E-01  7.119E-07  1.842E+00  0.000E+00  6.283E+00
  2.133E-01  2.323E-01  6.349E-07  1.137E+00  0.000E+00  6.283E+00
  2.323E-01  2.530E-01  5.605E-07  1.510E+00  0.000E+00  6.283E+00
  2.530E-01  2.754E-01  4.890E-07  3.997E-01  0.000E+00  6.283E+00
  2.754E-01  2.999E-01  4.551E-07  9.309E-01  0.000E+00  6.283E+00
  2.999E-01  3.266E-01  4.347E-07  1.578E+00  0.000E+00  6.283E+00
  3.266E-01  3.556E-01  4.405E-07  5.560E-01  0.000E+00  6.283E+00
  3.556E-01  3.873E-01  4.535E-07  1.043E+00  0.000E+00  6.283E+00
  3.873E-01  4.217E-01  5.259E-07  1.917E+00  0.000E+00  6.283E+00
  4.217E-01  4.592E-01  6.265E-07  8.027E-01  0.000E+00  6.283E+00
  4.592E-01  5.000E-01  4.361E-07  9.587E-01  0.000E+00  6.283E+00
  5.000E-01  5.000E-01  0.000E+00  0.000E+00  0.000E+00  6.283E+00

  1.000E-04  1.000E-04  0.000E+00  0.000E+00  6.283E+00  6.283E+00
  1.089E-04  1.089E-04  0.000E+00  0.000E+00  6.283E+00  6.283E+00
  1.186E-04  1.186E-04  0.000E+00  0.000E+00  6.283E+00  6.283E+00
  1.291E-04  1.291E-04  0.000E+00  0.000E+00  6.283E+00  6.283E+00
  1.406E-04  1.406E-04  0.000E+00  0.000E+00  6.283E+00  6.283E+00
  1.531E-04  1.531E-04  0.000E+00  0.000E+00  6.283E+00  6.283E+00
  1.667E-04  1.667E-04  0.000E+00  0.000E+00  6.283E+00  6.283E+00
  1.815E-04  1.815E-04  0.000E+00  0.000E+00  6.283E+00  6.283E+00
  1.977E-04  1.977E-04  0.000E+00  0.000E+00  6.283E+00  6.283E+00
  2.152E-04  2.152E-04  0.000E+00  0.000E+00  6.283E+00  6.283E+00
  2.344E-04  2.344E-04  0.000E+00  0.000E+00  6.283E+00  6.283E+00
  2.552E-04  2.552E-04  0.000E+00  0.000E+00  6.283E+00  6.283E+00
  2.779E-04  2.779E-04  0.000E+00  0.000E+00  6.283E+00  6.283E+00
  3.026E-04  3.026E-04  0.000E+00  0.000E+00  6.283E+00  6.283E+00
  3.295E-04  3.295E-04  0.000E+00  0.000E+00  6.283E+00  6.283E+00
  3.588E-04  3.588E-04  0.000E+00  0.000E+00  6.283E+00  6.283E+00
  3.907E-04  3.907E-04  0.000E+00  0.000E+00  6.283E+00  6.283E+00
  4.254E-04  4.254E-04  0.000E+00  0.000E+00  6.283E+00  6.283E+00
  4.632E-04  4.632E-04  0.000E+00  0.000E+00  6.283E+00  6.283E+00
  5.044E-04  5.044E-04  0.000E+00  0.000E+00  6.283E+00  6.283E+00
  5.493E-04  5.493E-04  0.000E+00  0.000E+00  6.283E+00  6.283E+00
  5.981E-04  5.981E-04  0.000E+00  0.000E+00  6.283E+00  6.283E+00
  6.513E-04  6.513E-04  0.000E+00  0.000E+00  6.283E+00  6.283E+00
  7.092E-04  7.092E-04  0.000E+00  0.000E+00  6.283E+00  6.283E+00
  7.722E-04  7.722E-04  0.000E+00  0.000E+00  6.283E+00  6.283E+00
  8.409E-04  8.409E-04  0.000E+00  0.000E+00  6.283E+00  6.283E+00
  9.157E-04  9.157E-04  0.000E+00  0.000E+00  6.283E+00  6.283E+00
  9.971E-04  9.971E-04  0.000E+00  0.000E+00  6.283E+00  6.283E+00
  1.086E-03  1.086E-03  0.000E+00  0.000E+00  6.283E+00  6.283E+00
  1.182E-03  1.182E-03  0.000E+00  0.000E+00  6.283E+00  6.283E+00
  1.287E-03  1.287E-03  0.000E+00  0.000E+00  6.283E+00  6.283E+00
  1.402E-03  1.402E-03  0.000E+00  0.000E+00  6.283E+00  6.283E+00
  1.526E-03  1.526E-03  0.000E+00  0.000E+00  6.283E+00  6.283E+00
  1.662E-03  1.662E-03  0.000E+00  0.000E+00  6.283E+00  6.283E+00
  1.810E-03  1.810E-03  0.000E+00  0.000E+00  6.283E+00  6.283E+00
  1.971E-03  1.971E-03  0.000E+00  0.000E+00  6.283E+00  6.283E+00
  2.146E-03  2.146E-03  0.000E+00  0.000E+00  6.283E+00  6.283E+00
  2.337E-03  2.337E-03  0.000E+00  0.000E+00  6.283E+00  6.283E+00
  2.545E-03  2.545E-03  0.000E+00  0.000E+00  6.283E+00  6.283E+00
  2.771E-03  2.771E-03  0.000E+00  0.000E+00  6.283E+00  6.283E+00
  3.017E-03  3.017E-03  0.000E+00  0.000E+00  6.283E+00  6.283E+00
  3.285E-03  3.285E-03  0.000E+00  0.000E+00  6.283E+00  6.283E+00
  3.577E-03  3.577E-03  0.000E+00  0.000E+00  6.283E+00  6.283E+00
  3.895E-03  3.895E-03  0.000E+00  0.000E+00  6.283E+00  6.283E+00
  4.242E-03  4.242E-03  0.000E+00  0.000E+00  6.283E+00  6.283E+00
  4.619E-03  4.619E-03  0.000E+00  0.000E+00  6.283E+00  6.283E+00
  5.030E-03  5.030E-03  0.000E+00  0.000E+00  6.283E+00  6.283E+00
  5.477E-03  5.477E-03  0.000E+00  0.000E+00  6.283E+00  6.283E+00
  5.964E-03  5.964E-03  0.000E+00  0.000E+00  6.283E+00  6.283E+00
  6.494E-03  6.494E-03  0.000E+00  0.000E+00  6.283E+00  6.283E+00
  7.071E-03  7.071E-03  0.000E+00  0.000E+00  6.283E+00  6.283E+00
  7.700E-03  7.700E-03  0.000E+00  0.000E+00  6.283E+00  6.283E+00
  8.384E-03  8.384E-03  0.000E+00  0.000E+00  6.283E+00  6.283E+00
  9.130E-03  9.130E-03  0.000E+00  0.000E+00  6.283E+00  6.283E+00
  9.941E-03  9.941E-03  0.000E+00  0.000E+00  6.283E+00  6.283E+00
  1.083E-02  1.083E-02  0.000E+00  0.000E+00  6.283E+00  6.283E+00
  1.179E-02  1.179E-02  0.000E+00  0.000E+00  6.283E+00  6.283E+00
  1.284E-02  1.284E-02  0.000E+00  0.000E+00  6.283E+00  6.283E+00
  1.398E-02  1.398E-02  0.000E+00  0.000E+00  6.283E+00  6.283E+00
  1.522E-02  1.522E-02  0.000E+00  0.000E+00  6.283E+00  6.283E+00
  1.657E-02  1.657E-02  0.000E+00  0.000E+00  6.283E+00  6.283E+00
  1.805E-02  1.805E-02  0.000E+00  0.000E+00  6.283E+00  6.283E+00
  1.965E-02  1.965E-02  0.000E+00  0.000E+00  6.283E+00  6.283E+00
  2.140E-02  2.140E-02  0.000E+00  0.000E+00  6.283E+00  6.283E+00
  2.330E-02  2.330E-02  0.000E+00  0.000E+00  6.283E+00  6.283E+00
  2.537E-02  2.537E-02  0.000E+00  0.000E+00  6.283E+00  6.283E+00
  2.763E-02  2.763E-02  0.000E+00  0.000E+00  6.283E+00  6.283E+00
  3.008E-02  3.008E-02  0.000E+00  0.000E+00  6.283E+00  6.283E+00
  3.276E-02  3.276E-02  0.000E+00  0.000E+00  6.283E+00  6.283E+00
  3.567E-02  3.567E-02  0.000E+00  0.000E+00  6.283E+00  6.283E+00
  3.884E-02  3.884E-02  0.000E+00  0.000E+00  6.283E+00  6.283E+00
  4.229E-02  4.229E-02  0.000E+00  0.000E+00  6.283E+00  6.283E+00
  4.605E-02  4.605E-02  0.000E+00  0.000E+00  6.283E+00  6.283E+00
  5.015E-02  5.015E-02  0.000E+00  0.000E+00  6.283E+00  6.283E+00
  5.461E-02  5.461E-02  0.000E+00  0.000E+00  6.283E+00  6.283E+00
  5.946E-02  5.946E-02  0.000E+00  0.000E+00  6.283E+00  6.283E+00
  6.475E-02  6.475E-02  0.000E+00  0.000E+00  6.283E+00  6.283E+00
  7.050E-02  7.050E-02  0.000E+00  0.000E+00  6.283E+00  6.283E+00
  7.677E-02  7.677E-02  0.000E+00  0.000E+00  6.283E+00  6.283E+00
  8.360E-02  8.360E-02  0.000E+00  0.000E+00  6.283E+00  6.283E+00
  9.103E-02  9.103E-02  0.000E+00  0.000E+00  6.283E+00  6.283E+00
  9.912E-02  9.912E-02  0.000E+00  0.000E+00  6.283E+00  6.283E+00
  1.079E-01  1.079E-01  0.000E+00  0.000E+00  6.283E+00  6.283E+00
  1.175E-01  1.175E-01  0.000E+00  0.000E+00  6.283E+00  6.283E+00
  1.280E-01  1.280E-01  0.000E+00  0.000E+00  6.283E+00  6.283E+00
  1.394E-01  1.394E-01  0.000E+00  0.000E+00  6.283E+00  6.283E+00
  1.517E-01  1.517E-01  0.000E+00  0.000E+00  6.283E+00  6.283E+00
  1.652E-01  1.652E-01  0.000E+00  0.000E+00  6.283E+00  6.283E+00
  1.799E-01  1.799E-01  0.000E+00  0.000E+00  6.283E+00  6.283E+00
  1.959E-01  1.959E-01  0.000E+00  0.000E+00  6.283E+00  6.283E+00
  2.133E-01  2.133E-01  0.000E+00  0.000E+00  6.283E+00  6.283E+00
  2.323E-01  2.323E-01  0.000E+00  0.000E+00  6.283E+00  6.283E+00
  2.530E-01  2.530E-01  0.000E+00  0.000E+00  6.283E+00  6.283E+00
  2.754E-01  2.754E-01  0.000E+00  0.000E+00  6.283E+00  6.283E+00
  2.999E-01  2.999E-01  0.000E+00  0.000E+00  6.283E+00  6.283E+00
  3.266E-01  3.266E-01  0.000E+00  0.000E+00  6.283E+00  6.283E+00
  3.556E-01  3.556E-01  0.000E+00  0.000E+00  6.283E+00  6.283E+00
  3.873E-01  3.873E-01  0.000E+00  0.000E+00  6.283E+00  6.283E+00
  4.217E-01  4.217E-01  0.000E+00  0.000E+00  6.283E+00  6.283E+00
  4.592E-01  4.592E-01  0.000E+00  0.000E+00  6.283E+00  6.283E+00
  5.000E-01  5.000E-01  0.000E+00  0.000E+00  6.283E+00  6.283E+00
