 # Detector n:            1   BdxCHad   (integrated over solid angle)
 # N. of energy intervals         100
  1.000E-04  1.089E-04  0.000E+00  0.000E+00
  1.089E-04  1.186E-04  0.000E+00  0.000E+00
  1.186E-04  1.291E-04  1.473E-06  9.900E+01
  1.291E-04  1.406E-04  2.012E-06  9.900E+01
  1.406E-04  1.531E-04  8.074E-07  9.900E+01
  1.531E-04  1.667E-04  0.000E+00  0.000E+00
  1.667E-04  1.815E-04  7.774E-07  9.900E+01
  1.815E-04  1.977E-04  6.254E-07  9.900E+01
  1.977E-04  2.152E-04  0.000E+00  0.000E+00
  2.152E-04  2.344E-04  0.000E+00  0.000E+00
  2.344E-04  2.552E-04  4.910E-07  9.900E+01
  2.552E-04  2.779E-04  0.000E+00  0.000E+00
  2.779E-04  3.026E-04  2.147E-06  5.623E+01
  3.026E-04  3.295E-04  1.205E-06  4.088E+01
  3.295E-04  3.588E-04  1.174E-06  4.089E+01
  3.588E-04  3.907E-04  1.918E-06  9.416E+00
  3.907E-04  4.254E-04  1.515E-06  5.453E+01
  4.254E-04  4.632E-04  1.316E-06  4.948E+01
  4.632E-04  5.044E-04  5.481E-07  9.900E+01
  5.044E-04  5.493E-04  1.581E-06  3.041E+01
  5.493E-04  5.981E-04  2.597E-06  3.421E+01
  5.981E-04  6.513E-04  2.427E-06  5.167E+01
  6.513E-04  7.092E-04  2.898E-06  6.836E+01
  7.092E-04  7.722E-04  3.597E-06  2.899E+01
  7.722E-04  8.409E-04  3.015E-06  2.672E+01
  8.409E-04  9.157E-04  1.465E-06  3.645E+01
  9.157E-04  9.971E-04  1.690E-06  2.814E+01
  9.971E-04  1.086E-03  3.267E-06  3.373E+01
  1.086E-03  1.182E-03  3.010E-06  2.622E+01
  1.182E-03  1.287E-03  3.177E-06  1.682E+01
  1.287E-03  1.402E-03  3.600E-06  1.008E+01
  1.402E-03  1.526E-03  2.561E-06  2.136E+01
  1.526E-03  1.662E-03  7.103E-06  4.775E+01
  1.662E-03  1.810E-03  4.133E-06  1.841E+01
  1.810E-03  1.971E-03  4.078E-06  1.364E+01
  1.971E-03  2.146E-03  3.421E-06  2.340E+01
  2.146E-03  2.337E-03  3.717E-06  8.352E+00
  2.337E-03  2.545E-03  4.109E-06  1.297E+01
  2.545E-03  2.771E-03  4.416E-06  9.307E+00
  2.771E-03  3.017E-03  4.666E-06  6.228E+00
  3.017E-03  3.285E-03  4.640E-06  1.473E+01
  3.285E-03  3.577E-03  4.983E-06  2.688E+00
  3.577E-03  3.895E-03  4.782E-06  7.658E+00
  3.895E-03  4.242E-03  5.895E-06  1.226E+01
  4.242E-03  4.619E-03  5.707E-06  1.423E+01
  4.619E-03  5.030E-03  6.012E-06  7.672E+00
  5.030E-03  5.477E-03  7.030E-06  1.152E+01
  5.477E-03  5.964E-03  7.022E-06  7.090E+00
  5.964E-03  6.494E-03  6.644E-06  7.605E+00
  6.494E-03  7.071E-03  6.905E-06  1.932E+00
  7.071E-03  7.700E-03  7.127E-06  8.016E+00
  7.700E-03  8.384E-03  7.183E-06  4.711E+00
  8.384E-03  9.130E-03  7.759E-06  5.838E+00
  9.130E-03  9.941E-03  8.714E-06  4.106E+00
  9.941E-03  1.083E-02  8.480E-06  4.508E+00
  1.083E-02  1.179E-02  8.848E-06  3.414E+00
  1.179E-02  1.284E-02  9.463E-06  2.541E+00
  1.284E-02  1.398E-02  9.714E-06  2.863E+00
  1.398E-02  1.522E-02  9.272E-06  2.735E+00
  1.522E-02  1.657E-02  9.551E-06  2.844E+00
  1.657E-02  1.805E-02  1.010E-05  1.672E+00
  1.805E-02  1.965E-02  9.566E-06  2.717E+00
  1.965E-02  2.140E-02  9.772E-06  3.159E+00
  2.140E-02  2.330E-02  9.248E-06  2.588E+00
  2.330E-02  2.537E-02  8.689E-06  2.886E+00
  2.537E-02  2.763E-02  9.171E-06  3.353E+00
  2.763E-02  3.008E-02  8.360E-06  2.968E+00
  3.008E-02  3.276E-02  7.993E-06  2.335E+00
  3.276E-02  3.567E-02  7.542E-06  2.632E+00
  3.567E-02  3.884E-02  6.135E-06  1.117E+00
  3.884E-02  4.229E-02  5.125E-06  3.557E+00
  4.229E-02  4.605E-02  3.389E-06  2.487E+00
  4.605E-02  5.015E-02  1.341E-06  4.678E+00
  5.015E-02  5.461E-02  0.000E+00  0.000E+00
  5.461E-02  5.946E-02  0.000E+00  0.000E+00
  5.946E-02  6.475E-02  0.000E+00  0.000E+00
  6.475E-02  7.050E-02  0.000E+00  0.000E+00
  7.050E-02  7.677E-02  0.000E+00  0.000E+00
  7.677E-02  8.360E-02  0.000E+00  0.000E+00
  8.360E-02  9.103E-02  0.000E+00  0.000E+00
  9.103E-02  9.912E-02  0.000E+00  0.000E+00
  9.912E-02  1.079E-01  0.000E+00  0.000E+00
  1.079E-01  1.175E-01  0.000E+00  0.000E+00
  1.175E-01  1.280E-01  0.000E+00  0.000E+00
  1.280E-01  1.394E-01  0.000E+00  0.000E+00
  1.394E-01  1.517E-01  0.000E+00  0.000E+00
  1.517E-01  1.652E-01  0.000E+00  0.000E+00
  1.652E-01  1.799E-01  0.000E+00  0.000E+00
  1.799E-01  1.959E-01  0.000E+00  0.000E+00
  1.959E-01  2.133E-01  0.000E+00  0.000E+00
  2.133E-01  2.323E-01  0.000E+00  0.000E+00
  2.323E-01  2.530E-01  0.000E+00  0.000E+00
  2.530E-01  2.754E-01  0.000E+00  0.000E+00
  2.754E-01  2.999E-01  0.000E+00  0.000E+00
  2.999E-01  3.266E-01  0.000E+00  0.000E+00
  3.266E-01  3.556E-01  0.000E+00  0.000E+00
  3.556E-01  3.873E-01  0.000E+00  0.000E+00
  3.873E-01  4.217E-01  0.000E+00  0.000E+00
  4.217E-01  4.592E-01  0.000E+00  0.000E+00
  4.592E-01  5.000E-01  0.000E+00  0.000E+00


 # double differential distributions
 # number of solid angle intervals           1
 # Block n:            1     0.00000000      :   6.28318548    
  1.000E-04  1.089E-04  0.000E+00  0.000E+00  0.000E+00  6.283E+00
  1.089E-04  1.186E-04  0.000E+00  0.000E+00  0.000E+00  6.283E+00
  1.186E-04  1.291E-04  2.345E-07  9.900E+01  0.000E+00  6.283E+00
  1.291E-04  1.406E-04  3.203E-07  9.900E+01  0.000E+00  6.283E+00
  1.406E-04  1.531E-04  1.285E-07  9.900E+01  0.000E+00  6.283E+00
  1.531E-04  1.667E-04  0.000E+00  0.000E+00  0.000E+00  6.283E+00
  1.667E-04  1.815E-04  1.237E-07  9.900E+01  0.000E+00  6.283E+00
  1.815E-04  1.977E-04  9.954E-08  9.900E+01  0.000E+00  6.283E+00
  1.977E-04  2.152E-04  0.000E+00  0.000E+00  0.000E+00  6.283E+00
  2.152E-04  2.344E-04  0.000E+00  0.000E+00  0.000E+00  6.283E+00
  2.344E-04  2.552E-04  7.815E-08  9.900E+01  0.000E+00  6.283E+00
  2.552E-04  2.779E-04  0.000E+00  0.000E+00  0.000E+00  6.283E+00
  2.779E-04  3.026E-04  3.417E-07  5.623E+01  0.000E+00  6.283E+00
  3.026E-04  3.295E-04  1.917E-07  4.088E+01  0.000E+00  6.283E+00
  3.295E-04  3.588E-04  1.868E-07  4.089E+01  0.000E+00  6.283E+00
  3.588E-04  3.907E-04  3.052E-07  9.416E+00  0.000E+00  6.283E+00
  3.907E-04  4.254E-04  2.411E-07  5.453E+01  0.000E+00  6.283E+00
  4.254E-04  4.632E-04  2.094E-07  4.948E+01  0.000E+00  6.283E+00
  4.632E-04  5.044E-04  8.723E-08  9.900E+01  0.000E+00  6.283E+00
  5.044E-04  5.493E-04  2.516E-07  3.041E+01  0.000E+00  6.283E+00
  5.493E-04  5.981E-04  4.134E-07  3.421E+01  0.000E+00  6.283E+00
  5.981E-04  6.513E-04  3.862E-07  5.167E+01  0.000E+00  6.283E+00
  6.513E-04  7.092E-04  4.612E-07  6.836E+01  0.000E+00  6.283E+00
  7.092E-04  7.722E-04  5.725E-07  2.899E+01  0.000E+00  6.283E+00
  7.722E-04  8.409E-04  4.798E-07  2.672E+01  0.000E+00  6.283E+00
  8.409E-04  9.157E-04  2.331E-07  3.645E+01  0.000E+00  6.283E+00
  9.157E-04  9.971E-04  2.689E-07  2.814E+01  0.000E+00  6.283E+00
  9.971E-04  1.086E-03  5.200E-07  3.373E+01  0.000E+00  6.283E+00
  1.086E-03  1.182E-03  4.791E-07  2.622E+01  0.000E+00  6.283E+00
  1.182E-03  1.287E-03  5.056E-07  1.682E+01  0.000E+00  6.283E+00
  1.287E-03  1.402E-03  5.729E-07  1.008E+01  0.000E+00  6.283E+00
  1.402E-03  1.526E-03  4.076E-07  2.136E+01  0.000E+00  6.283E+00
  1.526E-03  1.662E-03  1.131E-06  4.775E+01  0.000E+00  6.283E+00
  1.662E-03  1.810E-03  6.578E-07  1.841E+01  0.000E+00  6.283E+00
  1.810E-03  1.971E-03  6.490E-07  1.364E+01  0.000E+00  6.283E+00
  1.971E-03  2.146E-03  5.445E-07  2.340E+01  0.000E+00  6.283E+00
  2.146E-03  2.337E-03  5.915E-07  8.352E+00  0.000E+00  6.283E+00
  2.337E-03  2.545E-03  6.539E-07  1.297E+01  0.000E+00  6.283E+00
  2.545E-03  2.771E-03  7.028E-07  9.307E+00  0.000E+00  6.283E+00
  2.771E-03  3.017E-03  7.426E-07  6.228E+00  0.000E+00  6.283E+00
  3.017E-03  3.285E-03  7.384E-07  1.473E+01  0.000E+00  6.283E+00
  3.285E-03  3.577E-03  7.931E-07  2.688E+00  0.000E+00  6.283E+00
  3.577E-03  3.895E-03  7.611E-07  7.658E+00  0.000E+00  6.283E+00
  3.895E-03  4.242E-03  9.382E-07  1.226E+01  0.000E+00  6.283E+00
  4.242E-03  4.619E-03  9.082E-07  1.423E+01  0.000E+00  6.283E+00
  4.619E-03  5.030E-03  9.568E-07  7.672E+00  0.000E+00  6.283E+00
  5.030E-03  5.477E-03  1.119E-06  1.152E+01  0.000E+00  6.283E+00
  5.477E-03  5.964E-03  1.118E-06  7.090E+00  0.000E+00  6.283E+00
  5.964E-03  6.494E-03  1.057E-06  7.605E+00  0.000E+00  6.283E+00
  6.494E-03  7.071E-03  1.099E-06  1.932E+00  0.000E+00  6.283E+00
  7.071E-03  7.700E-03  1.134E-06  8.016E+00  0.000E+00  6.283E+00
  7.700E-03  8.384E-03  1.143E-06  4.711E+00  0.000E+00  6.283E+00
  8.384E-03  9.130E-03  1.235E-06  5.838E+00  0.000E+00  6.283E+00
  9.130E-03  9.941E-03  1.387E-06  4.106E+00  0.000E+00  6.283E+00
  9.941E-03  1.083E-02  1.350E-06  4.508E+00  0.000E+00  6.283E+00
  1.083E-02  1.179E-02  1.408E-06  3.414E+00  0.000E+00  6.283E+00
  1.179E-02  1.284E-02  1.506E-06  2.541E+00  0.000E+00  6.283E+00
  1.284E-02  1.398E-02  1.546E-06  2.863E+00  0.000E+00  6.283E+00
  1.398E-02  1.522E-02  1.476E-06  2.735E+00  0.000E+00  6.283E+00
  1.522E-02  1.657E-02  1.520E-06  2.844E+00  0.000E+00  6.283E+00
  1.657E-02  1.805E-02  1.608E-06  1.672E+00  0.000E+00  6.283E+00
  1.805E-02  1.965E-02  1.522E-06  2.717E+00  0.000E+00  6.283E+00
  1.965E-02  2.140E-02  1.555E-06  3.159E+00  0.000E+00  6.283E+00
  2.140E-02  2.330E-02  1.472E-06  2.588E+00  0.000E+00  6.283E+00
  2.330E-02  2.537E-02  1.383E-06  2.886E+00  0.000E+00  6.283E+00
  2.537E-02  2.763E-02  1.460E-06  3.353E+00  0.000E+00  6.283E+00
  2.763E-02  3.008E-02  1.331E-06  2.968E+00  0.000E+00  6.283E+00
  3.008E-02  3.276E-02  1.272E-06  2.335E+00  0.000E+00  6.283E+00
  3.276E-02  3.567E-02  1.200E-06  2.632E+00  0.000E+00  6.283E+00
  3.567E-02  3.884E-02  9.764E-07  1.117E+00  0.000E+00  6.283E+00
  3.884E-02  4.229E-02  8.157E-07  3.557E+00  0.000E+00  6.283E+00
  4.229E-02  4.605E-02  5.394E-07  2.487E+00  0.000E+00  6.283E+00
  4.605E-02  5.015E-02  2.135E-07  4.678E+00  0.000E+00  6.283E+00
  5.015E-02  5.461E-02  0.000E+00  0.000E+00  0.000E+00  6.283E+00
  5.461E-02  5.946E-02  0.000E+00  0.000E+00  0.000E+00  6.283E+00
  5.946E-02  6.475E-02  0.000E+00  0.000E+00  0.000E+00  6.283E+00
  6.475E-02  7.050E-02  0.000E+00  0.000E+00  0.000E+00  6.283E+00
  7.050E-02  7.677E-02  0.000E+00  0.000E+00  0.000E+00  6.283E+00
  7.677E-02  8.360E-02  0.000E+00  0.000E+00  0.000E+00  6.283E+00
  8.360E-02  9.103E-02  0.000E+00  0.000E+00  0.000E+00  6.283E+00
  9.103E-02  9.912E-02  0.000E+00  0.000E+00  0.000E+00  6.283E+00
  9.912E-02  1.079E-01  0.000E+00  0.000E+00  0.000E+00  6.283E+00
  1.079E-01  1.175E-01  0.000E+00  0.000E+00  0.000E+00  6.283E+00
  1.175E-01  1.280E-01  0.000E+00  0.000E+00  0.000E+00  6.283E+00
  1.280E-01  1.394E-01  0.000E+00  0.000E+00  0.000E+00  6.283E+00
  1.394E-01  1.517E-01  0.000E+00  0.000E+00  0.000E+00  6.283E+00
  1.517E-01  1.652E-01  0.000E+00  0.000E+00  0.000E+00  6.283E+00
  1.652E-01  1.799E-01  0.000E+00  0.000E+00  0.000E+00  6.283E+00
  1.799E-01  1.959E-01  0.000E+00  0.000E+00  0.000E+00  6.283E+00
  1.959E-01  2.133E-01  0.000E+00  0.000E+00  0.000E+00  6.283E+00
  2.133E-01  2.323E-01  0.000E+00  0.000E+00  0.000E+00  6.283E+00
  2.323E-01  2.530E-01  0.000E+00  0.000E+00  0.000E+00  6.283E+00
  2.530E-01  2.754E-01  0.000E+00  0.000E+00  0.000E+00  6.283E+00
  2.754E-01  2.999E-01  0.000E+00  0.000E+00  0.000E+00  6.283E+00
  2.999E-01  3.266E-01  0.000E+00  0.000E+00  0.000E+00  6.283E+00
  3.266E-01  3.556E-01  0.000E+00  0.000E+00  0.000E+00  6.283E+00
  3.556E-01  3.873E-01  0.000E+00  0.000E+00  0.000E+00  6.283E+00
  3.873E-01  4.217E-01  0.000E+00  0.000E+00  0.000E+00  6.283E+00
  4.217E-01  4.592E-01  0.000E+00  0.000E+00  0.000E+00  6.283E+00
  4.592E-01  5.000E-01  0.000E+00  0.000E+00  0.000E+00  6.283E+00
  5.000E-01  5.000E-01  0.000E+00  0.000E+00  0.000E+00  6.283E+00

  1.000E-04  1.000E-04  0.000E+00  0.000E+00  6.283E+00  6.283E+00
  1.089E-04  1.089E-04  0.000E+00  0.000E+00  6.283E+00  6.283E+00
  1.186E-04  1.186E-04  0.000E+00  0.000E+00  6.283E+00  6.283E+00
  1.291E-04  1.291E-04  0.000E+00  0.000E+00  6.283E+00  6.283E+00
  1.406E-04  1.406E-04  0.000E+00  0.000E+00  6.283E+00  6.283E+00
  1.531E-04  1.531E-04  0.000E+00  0.000E+00  6.283E+00  6.283E+00
  1.667E-04  1.667E-04  0.000E+00  0.000E+00  6.283E+00  6.283E+00
  1.815E-04  1.815E-04  0.000E+00  0.000E+00  6.283E+00  6.283E+00
  1.977E-04  1.977E-04  0.000E+00  0.000E+00  6.283E+00  6.283E+00
  2.152E-04  2.152E-04  0.000E+00  0.000E+00  6.283E+00  6.283E+00
  2.344E-04  2.344E-04  0.000E+00  0.000E+00  6.283E+00  6.283E+00
  2.552E-04  2.552E-04  0.000E+00  0.000E+00  6.283E+00  6.283E+00
  2.779E-04  2.779E-04  0.000E+00  0.000E+00  6.283E+00  6.283E+00
  3.026E-04  3.026E-04  0.000E+00  0.000E+00  6.283E+00  6.283E+00
  3.295E-04  3.295E-04  0.000E+00  0.000E+00  6.283E+00  6.283E+00
  3.588E-04  3.588E-04  0.000E+00  0.000E+00  6.283E+00  6.283E+00
  3.907E-04  3.907E-04  0.000E+00  0.000E+00  6.283E+00  6.283E+00
  4.254E-04  4.254E-04  0.000E+00  0.000E+00  6.283E+00  6.283E+00
  4.632E-04  4.632E-04  0.000E+00  0.000E+00  6.283E+00  6.283E+00
  5.044E-04  5.044E-04  0.000E+00  0.000E+00  6.283E+00  6.283E+00
  5.493E-04  5.493E-04  0.000E+00  0.000E+00  6.283E+00  6.283E+00
  5.981E-04  5.981E-04  0.000E+00  0.000E+00  6.283E+00  6.283E+00
  6.513E-04  6.513E-04  0.000E+00  0.000E+00  6.283E+00  6.283E+00
  7.092E-04  7.092E-04  0.000E+00  0.000E+00  6.283E+00  6.283E+00
  7.722E-04  7.722E-04  0.000E+00  0.000E+00  6.283E+00  6.283E+00
  8.409E-04  8.409E-04  0.000E+00  0.000E+00  6.283E+00  6.283E+00
  9.157E-04  9.157E-04  0.000E+00  0.000E+00  6.283E+00  6.283E+00
  9.971E-04  9.971E-04  0.000E+00  0.000E+00  6.283E+00  6.283E+00
  1.086E-03  1.086E-03  0.000E+00  0.000E+00  6.283E+00  6.283E+00
  1.182E-03  1.182E-03  0.000E+00  0.000E+00  6.283E+00  6.283E+00
  1.287E-03  1.287E-03  0.000E+00  0.000E+00  6.283E+00  6.283E+00
  1.402E-03  1.402E-03  0.000E+00  0.000E+00  6.283E+00  6.283E+00
  1.526E-03  1.526E-03  0.000E+00  0.000E+00  6.283E+00  6.283E+00
  1.662E-03  1.662E-03  0.000E+00  0.000E+00  6.283E+00  6.283E+00
  1.810E-03  1.810E-03  0.000E+00  0.000E+00  6.283E+00  6.283E+00
  1.971E-03  1.971E-03  0.000E+00  0.000E+00  6.283E+00  6.283E+00
  2.146E-03  2.146E-03  0.000E+00  0.000E+00  6.283E+00  6.283E+00
  2.337E-03  2.337E-03  0.000E+00  0.000E+00  6.283E+00  6.283E+00
  2.545E-03  2.545E-03  0.000E+00  0.000E+00  6.283E+00  6.283E+00
  2.771E-03  2.771E-03  0.000E+00  0.000E+00  6.283E+00  6.283E+00
  3.017E-03  3.017E-03  0.000E+00  0.000E+00  6.283E+00  6.283E+00
  3.285E-03  3.285E-03  0.000E+00  0.000E+00  6.283E+00  6.283E+00
  3.577E-03  3.577E-03  0.000E+00  0.000E+00  6.283E+00  6.283E+00
  3.895E-03  3.895E-03  0.000E+00  0.000E+00  6.283E+00  6.283E+00
  4.242E-03  4.242E-03  0.000E+00  0.000E+00  6.283E+00  6.283E+00
  4.619E-03  4.619E-03  0.000E+00  0.000E+00  6.283E+00  6.283E+00
  5.030E-03  5.030E-03  0.000E+00  0.000E+00  6.283E+00  6.283E+00
  5.477E-03  5.477E-03  0.000E+00  0.000E+00  6.283E+00  6.283E+00
  5.964E-03  5.964E-03  0.000E+00  0.000E+00  6.283E+00  6.283E+00
  6.494E-03  6.494E-03  0.000E+00  0.000E+00  6.283E+00  6.283E+00
  7.071E-03  7.071E-03  0.000E+00  0.000E+00  6.283E+00  6.283E+00
  7.700E-03  7.700E-03  0.000E+00  0.000E+00  6.283E+00  6.283E+00
  8.384E-03  8.384E-03  0.000E+00  0.000E+00  6.283E+00  6.283E+00
  9.130E-03  9.130E-03  0.000E+00  0.000E+00  6.283E+00  6.283E+00
  9.941E-03  9.941E-03  0.000E+00  0.000E+00  6.283E+00  6.283E+00
  1.083E-02  1.083E-02  0.000E+00  0.000E+00  6.283E+00  6.283E+00
  1.179E-02  1.179E-02  0.000E+00  0.000E+00  6.283E+00  6.283E+00
  1.284E-02  1.284E-02  0.000E+00  0.000E+00  6.283E+00  6.283E+00
  1.398E-02  1.398E-02  0.000E+00  0.000E+00  6.283E+00  6.283E+00
  1.522E-02  1.522E-02  0.000E+00  0.000E+00  6.283E+00  6.283E+00
  1.657E-02  1.657E-02  0.000E+00  0.000E+00  6.283E+00  6.283E+00
  1.805E-02  1.805E-02  0.000E+00  0.000E+00  6.283E+00  6.283E+00
  1.965E-02  1.965E-02  0.000E+00  0.000E+00  6.283E+00  6.283E+00
  2.140E-02  2.140E-02  0.000E+00  0.000E+00  6.283E+00  6.283E+00
  2.330E-02  2.330E-02  0.000E+00  0.000E+00  6.283E+00  6.283E+00
  2.537E-02  2.537E-02  0.000E+00  0.000E+00  6.283E+00  6.283E+00
  2.763E-02  2.763E-02  0.000E+00  0.000E+00  6.283E+00  6.283E+00
  3.008E-02  3.008E-02  0.000E+00  0.000E+00  6.283E+00  6.283E+00
  3.276E-02  3.276E-02  0.000E+00  0.000E+00  6.283E+00  6.283E+00
  3.567E-02  3.567E-02  0.000E+00  0.000E+00  6.283E+00  6.283E+00
  3.884E-02  3.884E-02  0.000E+00  0.000E+00  6.283E+00  6.283E+00
  4.229E-02  4.229E-02  0.000E+00  0.000E+00  6.283E+00  6.283E+00
  4.605E-02  4.605E-02  0.000E+00  0.000E+00  6.283E+00  6.283E+00
  5.015E-02  5.015E-02  0.000E+00  0.000E+00  6.283E+00  6.283E+00
  5.461E-02  5.461E-02  0.000E+00  0.000E+00  6.283E+00  6.283E+00
  5.946E-02  5.946E-02  0.000E+00  0.000E+00  6.283E+00  6.283E+00
  6.475E-02  6.475E-02  0.000E+00  0.000E+00  6.283E+00  6.283E+00
  7.050E-02  7.050E-02  0.000E+00  0.000E+00  6.283E+00  6.283E+00
  7.677E-02  7.677E-02  0.000E+00  0.000E+00  6.283E+00  6.283E+00
  8.360E-02  8.360E-02  0.000E+00  0.000E+00  6.283E+00  6.283E+00
  9.103E-02  9.103E-02  0.000E+00  0.000E+00  6.283E+00  6.283E+00
  9.912E-02  9.912E-02  0.000E+00  0.000E+00  6.283E+00  6.283E+00
  1.079E-01  1.079E-01  0.000E+00  0.000E+00  6.283E+00  6.283E+00
  1.175E-01  1.175E-01  0.000E+00  0.000E+00  6.283E+00  6.283E+00
  1.280E-01  1.280E-01  0.000E+00  0.000E+00  6.283E+00  6.283E+00
  1.394E-01  1.394E-01  0.000E+00  0.000E+00  6.283E+00  6.283E+00
  1.517E-01  1.517E-01  0.000E+00  0.000E+00  6.283E+00  6.283E+00
  1.652E-01  1.652E-01  0.000E+00  0.000E+00  6.283E+00  6.283E+00
  1.799E-01  1.799E-01  0.000E+00  0.000E+00  6.283E+00  6.283E+00
  1.959E-01  1.959E-01  0.000E+00  0.000E+00  6.283E+00  6.283E+00
  2.133E-01  2.133E-01  0.000E+00  0.000E+00  6.283E+00  6.283E+00
  2.323E-01  2.323E-01  0.000E+00  0.000E+00  6.283E+00  6.283E+00
  2.530E-01  2.530E-01  0.000E+00  0.000E+00  6.283E+00  6.283E+00
  2.754E-01  2.754E-01  0.000E+00  0.000E+00  6.283E+00  6.283E+00
  2.999E-01  2.999E-01  0.000E+00  0.000E+00  6.283E+00  6.283E+00
  3.266E-01  3.266E-01  0.000E+00  0.000E+00  6.283E+00  6.283E+00
  3.556E-01  3.556E-01  0.000E+00  0.000E+00  6.283E+00  6.283E+00
  3.873E-01  3.873E-01  0.000E+00  0.000E+00  6.283E+00  6.283E+00
  4.217E-01  4.217E-01  0.000E+00  0.000E+00  6.283E+00  6.283E+00
  4.592E-01  4.592E-01  0.000E+00  0.000E+00  6.283E+00  6.283E+00
  5.000E-01  5.000E-01  0.000E+00  0.000E+00  6.283E+00  6.283E+00
