 # Detector n:            1   BdxElec   (integrated over solid angle)
 # N. of energy intervals         100
  1.000E-04  1.089E-04  8.603E-05  2.825E+01
  1.089E-04  1.186E-04  7.977E-05  7.836E+00
  1.186E-04  1.291E-04  6.938E-05  1.388E+01
  1.291E-04  1.406E-04  6.261E-05  1.342E+01
  1.406E-04  1.531E-04  7.110E-05  1.019E+01
  1.531E-04  1.667E-04  7.164E-05  1.873E+01
  1.667E-04  1.815E-04  6.294E-05  2.104E+01
  1.815E-04  1.977E-04  6.442E-05  1.050E+01
  1.977E-04  2.152E-04  5.645E-05  1.470E+01
  2.152E-04  2.344E-04  4.959E-05  1.569E+01
  2.344E-04  2.552E-04  4.156E-05  1.607E+01
  2.552E-04  2.779E-04  3.578E-05  1.799E+01
  2.779E-04  3.026E-04  2.573E-05  2.205E+01
  3.026E-04  3.295E-04  5.247E-06  6.660E+01
  3.295E-04  3.588E-04  3.761E-06  4.925E+01
  3.588E-04  3.907E-04  2.184E-06  8.199E+01
  3.907E-04  4.254E-04  1.972E-06  8.228E+01
  4.254E-04  4.632E-04  3.460E-06  4.052E+01
  4.632E-04  5.044E-04  2.314E-06  4.136E+01
  5.044E-04  5.493E-04  8.335E-07  4.127E+01
  5.493E-04  5.981E-04  2.047E-06  2.106E+01
  5.981E-04  6.513E-04  2.310E-07  9.900E+01
  6.513E-04  7.092E-04  5.492E-06  2.418E+01
  7.092E-04  7.722E-04  1.864E-06  4.071E+01
  7.722E-04  8.409E-04  2.034E-06  2.449E+01
  8.409E-04  9.157E-04  3.373E-06  3.499E+01
  9.157E-04  9.971E-04  1.479E-06  6.448E+01
  9.971E-04  1.086E-03  2.596E-06  4.776E+01
  1.086E-03  1.182E-03  1.692E-06  4.114E+01
  1.182E-03  1.287E-03  1.197E-06  4.473E+01
  1.287E-03  1.402E-03  1.322E-06  4.488E+01
  1.402E-03  1.526E-03  1.968E-06  2.807E+01
  1.526E-03  1.662E-03  1.144E-06  5.376E+01
  1.662E-03  1.810E-03  1.060E-06  3.702E+01
  1.810E-03  1.971E-03  5.873E-07  3.993E+01
  1.971E-03  2.146E-03  6.208E-08  9.900E+01
  2.146E-03  2.337E-03  0.000E+00  0.000E+00
  2.337E-03  2.545E-03  0.000E+00  0.000E+00
  2.545E-03  2.771E-03  0.000E+00  0.000E+00
  2.771E-03  3.017E-03  0.000E+00  0.000E+00
  3.017E-03  3.285E-03  0.000E+00  0.000E+00
  3.285E-03  3.577E-03  0.000E+00  0.000E+00
  3.577E-03  3.895E-03  0.000E+00  0.000E+00
  3.895E-03  4.242E-03  4.883E-08  9.900E+01
  4.242E-03  4.619E-03  0.000E+00  0.000E+00
  4.619E-03  5.030E-03  0.000E+00  0.000E+00
  5.030E-03  5.477E-03  0.000E+00  0.000E+00
  5.477E-03  5.964E-03  0.000E+00  0.000E+00
  5.964E-03  6.494E-03  0.000E+00  0.000E+00
  6.494E-03  7.071E-03  0.000E+00  0.000E+00
  7.071E-03  7.700E-03  0.000E+00  0.000E+00
  7.700E-03  8.384E-03  0.000E+00  0.000E+00
  8.384E-03  9.130E-03  0.000E+00  0.000E+00
  9.130E-03  9.941E-03  0.000E+00  0.000E+00
  9.941E-03  1.083E-02  0.000E+00  0.000E+00
  1.083E-02  1.179E-02  0.000E+00  0.000E+00
  1.179E-02  1.284E-02  0.000E+00  0.000E+00
  1.284E-02  1.398E-02  0.000E+00  0.000E+00
  1.398E-02  1.522E-02  0.000E+00  0.000E+00
  1.522E-02  1.657E-02  0.000E+00  0.000E+00
  1.657E-02  1.805E-02  0.000E+00  0.000E+00
  1.805E-02  1.965E-02  0.000E+00  0.000E+00
  1.965E-02  2.140E-02  0.000E+00  0.000E+00
  2.140E-02  2.330E-02  0.000E+00  0.000E+00
  2.330E-02  2.537E-02  0.000E+00  0.000E+00
  2.537E-02  2.763E-02  0.000E+00  0.000E+00
  2.763E-02  3.008E-02  0.000E+00  0.000E+00
  3.008E-02  3.276E-02  0.000E+00  0.000E+00
  3.276E-02  3.567E-02  0.000E+00  0.000E+00
  3.567E-02  3.884E-02  0.000E+00  0.000E+00
  3.884E-02  4.229E-02  0.000E+00  0.000E+00
  4.229E-02  4.605E-02  0.000E+00  0.000E+00
  4.605E-02  5.015E-02  0.000E+00  0.000E+00
  5.015E-02  5.461E-02  0.000E+00  0.000E+00
  5.461E-02  5.946E-02  0.000E+00  0.000E+00
  5.946E-02  6.475E-02  0.000E+00  0.000E+00
  6.475E-02  7.050E-02  0.000E+00  0.000E+00
  7.050E-02  7.677E-02  0.000E+00  0.000E+00
  7.677E-02  8.360E-02  0.000E+00  0.000E+00
  8.360E-02  9.103E-02  0.000E+00  0.000E+00
  9.103E-02  9.912E-02  0.000E+00  0.000E+00
  9.912E-02  1.079E-01  0.000E+00  0.000E+00
  1.079E-01  1.175E-01  0.000E+00  0.000E+00
  1.175E-01  1.280E-01  0.000E+00  0.000E+00
  1.280E-01  1.394E-01  0.000E+00  0.000E+00
  1.394E-01  1.517E-01  0.000E+00  0.000E+00
  1.517E-01  1.652E-01  0.000E+00  0.000E+00
  1.652E-01  1.799E-01  0.000E+00  0.000E+00
  1.799E-01  1.959E-01  0.000E+00  0.000E+00
  1.959E-01  2.133E-01  0.000E+00  0.000E+00
  2.133E-01  2.323E-01  0.000E+00  0.000E+00
  2.323E-01  2.530E-01  0.000E+00  0.000E+00
  2.530E-01  2.754E-01  0.000E+00  0.000E+00
  2.754E-01  2.999E-01  0.000E+00  0.000E+00
  2.999E-01  3.266E-01  0.000E+00  0.000E+00
  3.266E-01  3.556E-01  0.000E+00  0.000E+00
  3.556E-01  3.873E-01  0.000E+00  0.000E+00
  3.873E-01  4.217E-01  0.000E+00  0.000E+00
  4.217E-01  4.592E-01  0.000E+00  0.000E+00
  4.592E-01  5.000E-01  0.000E+00  0.000E+00


 # double differential distributions
 # number of solid angle intervals           1
 # Block n:            1     0.00000000      :   6.28318548    
  1.000E-04  1.089E-04  1.369E-05  2.825E+01  0.000E+00  6.283E+00
  1.089E-04  1.186E-04  1.270E-05  7.836E+00  0.000E+00  6.283E+00
  1.186E-04  1.291E-04  1.104E-05  1.388E+01  0.000E+00  6.283E+00
  1.291E-04  1.406E-04  9.965E-06  1.342E+01  0.000E+00  6.283E+00
  1.406E-04  1.531E-04  1.132E-05  1.019E+01  0.000E+00  6.283E+00
  1.531E-04  1.667E-04  1.140E-05  1.873E+01  0.000E+00  6.283E+00
  1.667E-04  1.815E-04  1.002E-05  2.104E+01  0.000E+00  6.283E+00
  1.815E-04  1.977E-04  1.025E-05  1.050E+01  0.000E+00  6.283E+00
  1.977E-04  2.152E-04  8.985E-06  1.470E+01  0.000E+00  6.283E+00
  2.152E-04  2.344E-04  7.892E-06  1.569E+01  0.000E+00  6.283E+00
  2.344E-04  2.552E-04  6.615E-06  1.607E+01  0.000E+00  6.283E+00
  2.552E-04  2.779E-04  5.694E-06  1.799E+01  0.000E+00  6.283E+00
  2.779E-04  3.026E-04  4.095E-06  2.205E+01  0.000E+00  6.283E+00
  3.026E-04  3.295E-04  8.351E-07  6.660E+01  0.000E+00  6.283E+00
  3.295E-04  3.588E-04  5.985E-07  4.925E+01  0.000E+00  6.283E+00
  3.588E-04  3.907E-04  3.476E-07  8.199E+01  0.000E+00  6.283E+00
  3.907E-04  4.254E-04  3.139E-07  8.228E+01  0.000E+00  6.283E+00
  4.254E-04  4.632E-04  5.506E-07  4.052E+01  0.000E+00  6.283E+00
  4.632E-04  5.044E-04  3.683E-07  4.136E+01  0.000E+00  6.283E+00
  5.044E-04  5.493E-04  1.327E-07  4.127E+01  0.000E+00  6.283E+00
  5.493E-04  5.981E-04  3.257E-07  2.106E+01  0.000E+00  6.283E+00
  5.981E-04  6.513E-04  3.676E-08  9.900E+01  0.000E+00  6.283E+00
  6.513E-04  7.092E-04  8.741E-07  2.418E+01  0.000E+00  6.283E+00
  7.092E-04  7.722E-04  2.967E-07  4.071E+01  0.000E+00  6.283E+00
  7.722E-04  8.409E-04  3.237E-07  2.449E+01  0.000E+00  6.283E+00
  8.409E-04  9.157E-04  5.369E-07  3.499E+01  0.000E+00  6.283E+00
  9.157E-04  9.971E-04  2.354E-07  6.448E+01  0.000E+00  6.283E+00
  9.971E-04  1.086E-03  4.132E-07  4.776E+01  0.000E+00  6.283E+00
  1.086E-03  1.182E-03  2.694E-07  4.114E+01  0.000E+00  6.283E+00
  1.182E-03  1.287E-03  1.905E-07  4.473E+01  0.000E+00  6.283E+00
  1.287E-03  1.402E-03  2.103E-07  4.488E+01  0.000E+00  6.283E+00
  1.402E-03  1.526E-03  3.132E-07  2.807E+01  0.000E+00  6.283E+00
  1.526E-03  1.662E-03  1.820E-07  5.376E+01  0.000E+00  6.283E+00
  1.662E-03  1.810E-03  1.687E-07  3.702E+01  0.000E+00  6.283E+00
  1.810E-03  1.971E-03  9.347E-08  3.993E+01  0.000E+00  6.283E+00
  1.971E-03  2.146E-03  9.880E-09  9.900E+01  0.000E+00  6.283E+00
  2.146E-03  2.337E-03  0.000E+00  0.000E+00  0.000E+00  6.283E+00
  2.337E-03  2.545E-03  0.000E+00  0.000E+00  0.000E+00  6.283E+00
  2.545E-03  2.771E-03  0.000E+00  0.000E+00  0.000E+00  6.283E+00
  2.771E-03  3.017E-03  0.000E+00  0.000E+00  0.000E+00  6.283E+00
  3.017E-03  3.285E-03  0.000E+00  0.000E+00  0.000E+00  6.283E+00
  3.285E-03  3.577E-03  0.000E+00  0.000E+00  0.000E+00  6.283E+00
  3.577E-03  3.895E-03  0.000E+00  0.000E+00  0.000E+00  6.283E+00
  3.895E-03  4.242E-03  7.772E-09  9.900E+01  0.000E+00  6.283E+00
  4.242E-03  4.619E-03  0.000E+00  0.000E+00  0.000E+00  6.283E+00
  4.619E-03  5.030E-03  0.000E+00  0.000E+00  0.000E+00  6.283E+00
  5.030E-03  5.477E-03  0.000E+00  0.000E+00  0.000E+00  6.283E+00
  5.477E-03  5.964E-03  0.000E+00  0.000E+00  0.000E+00  6.283E+00
  5.964E-03  6.494E-03  0.000E+00  0.000E+00  0.000E+00  6.283E+00
  6.494E-03  7.071E-03  0.000E+00  0.000E+00  0.000E+00  6.283E+00
  7.071E-03  7.700E-03  0.000E+00  0.000E+00  0.000E+00  6.283E+00
  7.700E-03  8.384E-03  0.000E+00  0.000E+00  0.000E+00  6.283E+00
  8.384E-03  9.130E-03  0.000E+00  0.000E+00  0.000E+00  6.283E+00
  9.130E-03  9.941E-03  0.000E+00  0.000E+00  0.000E+00  6.283E+00
  9.941E-03  1.083E-02  0.000E+00  0.000E+00  0.000E+00  6.283E+00
  1.083E-02  1.179E-02  0.000E+00  0.000E+00  0.000E+00  6.283E+00
  1.179E-02  1.284E-02  0.000E+00  0.000E+00  0.000E+00  6.283E+00
  1.284E-02  1.398E-02  0.000E+00  0.000E+00  0.000E+00  6.283E+00
  1.398E-02  1.522E-02  0.000E+00  0.000E+00  0.000E+00  6.283E+00
  1.522E-02  1.657E-02  0.000E+00  0.000E+00  0.000E+00  6.283E+00
  1.657E-02  1.805E-02  0.000E+00  0.000E+00  0.000E+00  6.283E+00
  1.805E-02  1.965E-02  0.000E+00  0.000E+00  0.000E+00  6.283E+00
  1.965E-02  2.140E-02  0.000E+00  0.000E+00  0.000E+00  6.283E+00
  2.140E-02  2.330E-02  0.000E+00  0.000E+00  0.000E+00  6.283E+00
  2.330E-02  2.537E-02  0.000E+00  0.000E+00  0.000E+00  6.283E+00
  2.537E-02  2.763E-02  0.000E+00  0.000E+00  0.000E+00  6.283E+00
  2.763E-02  3.008E-02  0.000E+00  0.000E+00  0.000E+00  6.283E+00
  3.008E-02  3.276E-02  0.000E+00  0.000E+00  0.000E+00  6.283E+00
  3.276E-02  3.567E-02  0.000E+00  0.000E+00  0.000E+00  6.283E+00
  3.567E-02  3.884E-02  0.000E+00  0.000E+00  0.000E+00  6.283E+00
  3.884E-02  4.229E-02  0.000E+00  0.000E+00  0.000E+00  6.283E+00
  4.229E-02  4.605E-02  0.000E+00  0.000E+00  0.000E+00  6.283E+00
  4.605E-02  5.015E-02  0.000E+00  0.000E+00  0.000E+00  6.283E+00
  5.015E-02  5.461E-02  0.000E+00  0.000E+00  0.000E+00  6.283E+00
  5.461E-02  5.946E-02  0.000E+00  0.000E+00  0.000E+00  6.283E+00
  5.946E-02  6.475E-02  0.000E+00  0.000E+00  0.000E+00  6.283E+00
  6.475E-02  7.050E-02  0.000E+00  0.000E+00  0.000E+00  6.283E+00
  7.050E-02  7.677E-02  0.000E+00  0.000E+00  0.000E+00  6.283E+00
  7.677E-02  8.360E-02  0.000E+00  0.000E+00  0.000E+00  6.283E+00
  8.360E-02  9.103E-02  0.000E+00  0.000E+00  0.000E+00  6.283E+00
  9.103E-02  9.912E-02  0.000E+00  0.000E+00  0.000E+00  6.283E+00
  9.912E-02  1.079E-01  0.000E+00  0.000E+00  0.000E+00  6.283E+00
  1.079E-01  1.175E-01  0.000E+00  0.000E+00  0.000E+00  6.283E+00
  1.175E-01  1.280E-01  0.000E+00  0.000E+00  0.000E+00  6.283E+00
  1.280E-01  1.394E-01  0.000E+00  0.000E+00  0.000E+00  6.283E+00
  1.394E-01  1.517E-01  0.000E+00  0.000E+00  0.000E+00  6.283E+00
  1.517E-01  1.652E-01  0.000E+00  0.000E+00  0.000E+00  6.283E+00
  1.652E-01  1.799E-01  0.000E+00  0.000E+00  0.000E+00  6.283E+00
  1.799E-01  1.959E-01  0.000E+00  0.000E+00  0.000E+00  6.283E+00
  1.959E-01  2.133E-01  0.000E+00  0.000E+00  0.000E+00  6.283E+00
  2.133E-01  2.323E-01  0.000E+00  0.000E+00  0.000E+00  6.283E+00
  2.323E-01  2.530E-01  0.000E+00  0.000E+00  0.000E+00  6.283E+00
  2.530E-01  2.754E-01  0.000E+00  0.000E+00  0.000E+00  6.283E+00
  2.754E-01  2.999E-01  0.000E+00  0.000E+00  0.000E+00  6.283E+00
  2.999E-01  3.266E-01  0.000E+00  0.000E+00  0.000E+00  6.283E+00
  3.266E-01  3.556E-01  0.000E+00  0.000E+00  0.000E+00  6.283E+00
  3.556E-01  3.873E-01  0.000E+00  0.000E+00  0.000E+00  6.283E+00
  3.873E-01  4.217E-01  0.000E+00  0.000E+00  0.000E+00  6.283E+00
  4.217E-01  4.592E-01  0.000E+00  0.000E+00  0.000E+00  6.283E+00
  4.592E-01  5.000E-01  0.000E+00  0.000E+00  0.000E+00  6.283E+00
  5.000E-01  5.000E-01  0.000E+00  0.000E+00  0.000E+00  6.283E+00

  1.000E-04  1.000E-04  0.000E+00  0.000E+00  6.283E+00  6.283E+00
  1.089E-04  1.089E-04  0.000E+00  0.000E+00  6.283E+00  6.283E+00
  1.186E-04  1.186E-04  0.000E+00  0.000E+00  6.283E+00  6.283E+00
  1.291E-04  1.291E-04  0.000E+00  0.000E+00  6.283E+00  6.283E+00
  1.406E-04  1.406E-04  0.000E+00  0.000E+00  6.283E+00  6.283E+00
  1.531E-04  1.531E-04  0.000E+00  0.000E+00  6.283E+00  6.283E+00
  1.667E-04  1.667E-04  0.000E+00  0.000E+00  6.283E+00  6.283E+00
  1.815E-04  1.815E-04  0.000E+00  0.000E+00  6.283E+00  6.283E+00
  1.977E-04  1.977E-04  0.000E+00  0.000E+00  6.283E+00  6.283E+00
  2.152E-04  2.152E-04  0.000E+00  0.000E+00  6.283E+00  6.283E+00
  2.344E-04  2.344E-04  0.000E+00  0.000E+00  6.283E+00  6.283E+00
  2.552E-04  2.552E-04  0.000E+00  0.000E+00  6.283E+00  6.283E+00
  2.779E-04  2.779E-04  0.000E+00  0.000E+00  6.283E+00  6.283E+00
  3.026E-04  3.026E-04  0.000E+00  0.000E+00  6.283E+00  6.283E+00
  3.295E-04  3.295E-04  0.000E+00  0.000E+00  6.283E+00  6.283E+00
  3.588E-04  3.588E-04  0.000E+00  0.000E+00  6.283E+00  6.283E+00
  3.907E-04  3.907E-04  0.000E+00  0.000E+00  6.283E+00  6.283E+00
  4.254E-04  4.254E-04  0.000E+00  0.000E+00  6.283E+00  6.283E+00
  4.632E-04  4.632E-04  0.000E+00  0.000E+00  6.283E+00  6.283E+00
  5.044E-04  5.044E-04  0.000E+00  0.000E+00  6.283E+00  6.283E+00
  5.493E-04  5.493E-04  0.000E+00  0.000E+00  6.283E+00  6.283E+00
  5.981E-04  5.981E-04  0.000E+00  0.000E+00  6.283E+00  6.283E+00
  6.513E-04  6.513E-04  0.000E+00  0.000E+00  6.283E+00  6.283E+00
  7.092E-04  7.092E-04  0.000E+00  0.000E+00  6.283E+00  6.283E+00
  7.722E-04  7.722E-04  0.000E+00  0.000E+00  6.283E+00  6.283E+00
  8.409E-04  8.409E-04  0.000E+00  0.000E+00  6.283E+00  6.283E+00
  9.157E-04  9.157E-04  0.000E+00  0.000E+00  6.283E+00  6.283E+00
  9.971E-04  9.971E-04  0.000E+00  0.000E+00  6.283E+00  6.283E+00
  1.086E-03  1.086E-03  0.000E+00  0.000E+00  6.283E+00  6.283E+00
  1.182E-03  1.182E-03  0.000E+00  0.000E+00  6.283E+00  6.283E+00
  1.287E-03  1.287E-03  0.000E+00  0.000E+00  6.283E+00  6.283E+00
  1.402E-03  1.402E-03  0.000E+00  0.000E+00  6.283E+00  6.283E+00
  1.526E-03  1.526E-03  0.000E+00  0.000E+00  6.283E+00  6.283E+00
  1.662E-03  1.662E-03  0.000E+00  0.000E+00  6.283E+00  6.283E+00
  1.810E-03  1.810E-03  0.000E+00  0.000E+00  6.283E+00  6.283E+00
  1.971E-03  1.971E-03  0.000E+00  0.000E+00  6.283E+00  6.283E+00
  2.146E-03  2.146E-03  0.000E+00  0.000E+00  6.283E+00  6.283E+00
  2.337E-03  2.337E-03  0.000E+00  0.000E+00  6.283E+00  6.283E+00
  2.545E-03  2.545E-03  0.000E+00  0.000E+00  6.283E+00  6.283E+00
  2.771E-03  2.771E-03  0.000E+00  0.000E+00  6.283E+00  6.283E+00
  3.017E-03  3.017E-03  0.000E+00  0.000E+00  6.283E+00  6.283E+00
  3.285E-03  3.285E-03  0.000E+00  0.000E+00  6.283E+00  6.283E+00
  3.577E-03  3.577E-03  0.000E+00  0.000E+00  6.283E+00  6.283E+00
  3.895E-03  3.895E-03  0.000E+00  0.000E+00  6.283E+00  6.283E+00
  4.242E-03  4.242E-03  0.000E+00  0.000E+00  6.283E+00  6.283E+00
  4.619E-03  4.619E-03  0.000E+00  0.000E+00  6.283E+00  6.283E+00
  5.030E-03  5.030E-03  0.000E+00  0.000E+00  6.283E+00  6.283E+00
  5.477E-03  5.477E-03  0.000E+00  0.000E+00  6.283E+00  6.283E+00
  5.964E-03  5.964E-03  0.000E+00  0.000E+00  6.283E+00  6.283E+00
  6.494E-03  6.494E-03  0.000E+00  0.000E+00  6.283E+00  6.283E+00
  7.071E-03  7.071E-03  0.000E+00  0.000E+00  6.283E+00  6.283E+00
  7.700E-03  7.700E-03  0.000E+00  0.000E+00  6.283E+00  6.283E+00
  8.384E-03  8.384E-03  0.000E+00  0.000E+00  6.283E+00  6.283E+00
  9.130E-03  9.130E-03  0.000E+00  0.000E+00  6.283E+00  6.283E+00
  9.941E-03  9.941E-03  0.000E+00  0.000E+00  6.283E+00  6.283E+00
  1.083E-02  1.083E-02  0.000E+00  0.000E+00  6.283E+00  6.283E+00
  1.179E-02  1.179E-02  0.000E+00  0.000E+00  6.283E+00  6.283E+00
  1.284E-02  1.284E-02  0.000E+00  0.000E+00  6.283E+00  6.283E+00
  1.398E-02  1.398E-02  0.000E+00  0.000E+00  6.283E+00  6.283E+00
  1.522E-02  1.522E-02  0.000E+00  0.000E+00  6.283E+00  6.283E+00
  1.657E-02  1.657E-02  0.000E+00  0.000E+00  6.283E+00  6.283E+00
  1.805E-02  1.805E-02  0.000E+00  0.000E+00  6.283E+00  6.283E+00
  1.965E-02  1.965E-02  0.000E+00  0.000E+00  6.283E+00  6.283E+00
  2.140E-02  2.140E-02  0.000E+00  0.000E+00  6.283E+00  6.283E+00
  2.330E-02  2.330E-02  0.000E+00  0.000E+00  6.283E+00  6.283E+00
  2.537E-02  2.537E-02  0.000E+00  0.000E+00  6.283E+00  6.283E+00
  2.763E-02  2.763E-02  0.000E+00  0.000E+00  6.283E+00  6.283E+00
  3.008E-02  3.008E-02  0.000E+00  0.000E+00  6.283E+00  6.283E+00
  3.276E-02  3.276E-02  0.000E+00  0.000E+00  6.283E+00  6.283E+00
  3.567E-02  3.567E-02  0.000E+00  0.000E+00  6.283E+00  6.283E+00
  3.884E-02  3.884E-02  0.000E+00  0.000E+00  6.283E+00  6.283E+00
  4.229E-02  4.229E-02  0.000E+00  0.000E+00  6.283E+00  6.283E+00
  4.605E-02  4.605E-02  0.000E+00  0.000E+00  6.283E+00  6.283E+00
  5.015E-02  5.015E-02  0.000E+00  0.000E+00  6.283E+00  6.283E+00
  5.461E-02  5.461E-02  0.000E+00  0.000E+00  6.283E+00  6.283E+00
  5.946E-02  5.946E-02  0.000E+00  0.000E+00  6.283E+00  6.283E+00
  6.475E-02  6.475E-02  0.000E+00  0.000E+00  6.283E+00  6.283E+00
  7.050E-02  7.050E-02  0.000E+00  0.000E+00  6.283E+00  6.283E+00
  7.677E-02  7.677E-02  0.000E+00  0.000E+00  6.283E+00  6.283E+00
  8.360E-02  8.360E-02  0.000E+00  0.000E+00  6.283E+00  6.283E+00
  9.103E-02  9.103E-02  0.000E+00  0.000E+00  6.283E+00  6.283E+00
  9.912E-02  9.912E-02  0.000E+00  0.000E+00  6.283E+00  6.283E+00
  1.079E-01  1.079E-01  0.000E+00  0.000E+00  6.283E+00  6.283E+00
  1.175E-01  1.175E-01  0.000E+00  0.000E+00  6.283E+00  6.283E+00
  1.280E-01  1.280E-01  0.000E+00  0.000E+00  6.283E+00  6.283E+00
  1.394E-01  1.394E-01  0.000E+00  0.000E+00  6.283E+00  6.283E+00
  1.517E-01  1.517E-01  0.000E+00  0.000E+00  6.283E+00  6.283E+00
  1.652E-01  1.652E-01  0.000E+00  0.000E+00  6.283E+00  6.283E+00
  1.799E-01  1.799E-01  0.000E+00  0.000E+00  6.283E+00  6.283E+00
  1.959E-01  1.959E-01  0.000E+00  0.000E+00  6.283E+00  6.283E+00
  2.133E-01  2.133E-01  0.000E+00  0.000E+00  6.283E+00  6.283E+00
  2.323E-01  2.323E-01  0.000E+00  0.000E+00  6.283E+00  6.283E+00
  2.530E-01  2.530E-01  0.000E+00  0.000E+00  6.283E+00  6.283E+00
  2.754E-01  2.754E-01  0.000E+00  0.000E+00  6.283E+00  6.283E+00
  2.999E-01  2.999E-01  0.000E+00  0.000E+00  6.283E+00  6.283E+00
  3.266E-01  3.266E-01  0.000E+00  0.000E+00  6.283E+00  6.283E+00
  3.556E-01  3.556E-01  0.000E+00  0.000E+00  6.283E+00  6.283E+00
  3.873E-01  3.873E-01  0.000E+00  0.000E+00  6.283E+00  6.283E+00
  4.217E-01  4.217E-01  0.000E+00  0.000E+00  6.283E+00  6.283E+00
  4.592E-01  4.592E-01  0.000E+00  0.000E+00  6.283E+00  6.283E+00
  5.000E-01  5.000E-01  0.000E+00  0.000E+00  6.283E+00  6.283E+00
