 # Detector n:            1   BdxElec   (integrated over solid angle)
 # N. of energy intervals         100
  1.000E-04  1.089E-04  5.747E-04  5.403E+00
  1.089E-04  1.186E-04  6.020E-04  1.055E+01
  1.186E-04  1.291E-04  4.639E-04  8.706E+00
  1.291E-04  1.406E-04  6.443E-04  2.882E+01
  1.406E-04  1.531E-04  4.783E-04  1.177E+01
  1.531E-04  1.667E-04  3.849E-04  6.887E+00
  1.667E-04  1.815E-04  3.029E-04  4.863E+00
  1.815E-04  1.977E-04  3.114E-04  5.281E+00
  1.977E-04  2.152E-04  2.824E-04  7.326E+00
  2.152E-04  2.344E-04  2.312E-04  1.146E+01
  2.344E-04  2.552E-04  2.466E-04  2.059E+01
  2.552E-04  2.779E-04  1.720E-04  9.119E+00
  2.779E-04  3.026E-04  1.569E-04  2.786E+00
  3.026E-04  3.295E-04  1.277E-04  7.024E+00
  3.295E-04  3.588E-04  1.149E-04  7.950E+00
  3.588E-04  3.907E-04  8.730E-05  8.609E+00
  3.907E-04  4.254E-04  7.009E-05  8.547E+00
  4.254E-04  4.632E-04  7.238E-05  1.084E+01
  4.632E-04  5.044E-04  6.144E-05  9.862E+00
  5.044E-04  5.493E-04  5.462E-05  5.718E+00
  5.493E-04  5.981E-04  4.134E-05  1.112E+01
  5.981E-04  6.513E-04  4.300E-05  1.166E+01
  6.513E-04  7.092E-04  3.442E-05  8.230E+00
  7.092E-04  7.722E-04  2.433E-05  1.533E+01
  7.722E-04  8.409E-04  1.910E-05  6.099E+00
  8.409E-04  9.157E-04  1.852E-05  1.154E+01
  9.157E-04  9.971E-04  1.488E-05  1.070E+01
  9.971E-04  1.086E-03  1.549E-05  1.537E+01
  1.086E-03  1.182E-03  1.149E-05  1.375E+01
  1.182E-03  1.287E-03  1.182E-05  1.290E+01
  1.287E-03  1.402E-03  7.609E-06  1.632E+01
  1.402E-03  1.526E-03  8.206E-06  9.071E+00
  1.526E-03  1.662E-03  9.956E-06  1.249E+01
  1.662E-03  1.810E-03  7.994E-06  2.459E+00
  1.810E-03  1.971E-03  6.486E-06  1.609E+01
  1.971E-03  2.146E-03  7.065E-06  1.074E+01
  2.146E-03  2.337E-03  7.021E-06  1.707E+01
  2.337E-03  2.545E-03  7.575E-06  8.007E+00
  2.545E-03  2.771E-03  6.069E-06  1.806E+01
  2.771E-03  3.017E-03  6.976E-06  2.070E+01
  3.017E-03  3.285E-03  6.298E-06  1.231E+01
  3.285E-03  3.577E-03  4.824E-06  1.717E+01
  3.577E-03  3.895E-03  4.884E-06  1.071E+01
  3.895E-03  4.242E-03  5.010E-06  1.233E+01
  4.242E-03  4.619E-03  3.749E-06  1.575E+01
  4.619E-03  5.030E-03  3.661E-06  1.402E+01
  5.030E-03  5.477E-03  4.270E-06  1.531E+01
  5.477E-03  5.964E-03  3.014E-06  1.389E+01
  5.964E-03  6.494E-03  3.253E-06  1.158E+01
  6.494E-03  7.071E-03  2.291E-06  1.154E+01
  7.071E-03  7.700E-03  3.507E-06  6.321E+00
  7.700E-03  8.384E-03  2.606E-06  1.346E+01
  8.384E-03  9.130E-03  3.412E-06  2.720E+01
  9.130E-03  9.941E-03  3.111E-06  7.297E+00
  9.941E-03  1.083E-02  3.761E-06  1.409E+01
  1.083E-02  1.179E-02  3.240E-06  1.123E+01
  1.179E-02  1.284E-02  3.244E-06  1.089E+01
  1.284E-02  1.398E-02  2.419E-06  1.831E+01
  1.398E-02  1.522E-02  2.652E-06  9.144E+00
  1.522E-02  1.657E-02  2.648E-06  6.718E+00
  1.657E-02  1.805E-02  2.602E-06  9.299E+00
  1.805E-02  1.965E-02  2.580E-06  1.673E+01
  1.965E-02  2.140E-02  2.112E-06  1.142E+01
  2.140E-02  2.330E-02  2.934E-06  1.941E+01
  2.330E-02  2.537E-02  2.280E-06  1.481E+01
  2.537E-02  2.763E-02  2.938E-06  1.289E+01
  2.763E-02  3.008E-02  2.152E-06  6.259E+00
  3.008E-02  3.276E-02  1.743E-06  7.358E+00
  3.276E-02  3.567E-02  2.049E-06  1.919E+01
  3.567E-02  3.884E-02  1.916E-06  1.308E+01
  3.884E-02  4.229E-02  1.818E-06  6.762E+00
  4.229E-02  4.605E-02  1.401E-06  1.045E+01
  4.605E-02  5.015E-02  1.490E-06  9.798E+00
  5.015E-02  5.461E-02  1.144E-06  8.694E+00
  5.461E-02  5.946E-02  1.303E-06  1.879E+01
  5.946E-02  6.475E-02  1.155E-06  1.061E+01
  6.475E-02  7.050E-02  7.542E-07  9.342E+00
  7.050E-02  7.677E-02  6.643E-07  1.257E+01
  7.677E-02  8.360E-02  5.805E-07  8.947E+00
  8.360E-02  9.103E-02  4.363E-07  9.280E+00
  9.103E-02  9.912E-02  4.736E-07  2.003E+01
  9.912E-02  1.079E-01  4.881E-07  2.547E+01
  1.079E-01  1.175E-01  3.287E-07  1.432E+01
  1.175E-01  1.280E-01  2.523E-07  1.966E+01
  1.280E-01  1.394E-01  1.558E-07  1.272E+01
  1.394E-01  1.517E-01  1.330E-07  1.532E+01
  1.517E-01  1.652E-01  9.480E-08  3.087E+01
  1.652E-01  1.799E-01  1.021E-07  1.777E+01
  1.799E-01  1.959E-01  6.595E-08  1.011E+01
  1.959E-01  2.133E-01  3.017E-08  1.650E+01
  2.133E-01  2.323E-01  2.894E-08  1.595E+01
  2.323E-01  2.530E-01  1.162E-08  2.800E+01
  2.530E-01  2.754E-01  6.639E-09  3.287E+01
  2.754E-01  2.999E-01  3.209E-09  2.984E+01
  2.999E-01  3.266E-01  2.478E-09  4.108E+01
  3.266E-01  3.556E-01  8.582E-10  6.280E+01
  3.556E-01  3.873E-01  4.470E-10  9.900E+01
  3.873E-01  4.217E-01  0.000E+00  0.000E+00
  4.217E-01  4.592E-01  0.000E+00  0.000E+00
  4.592E-01  5.000E-01  0.000E+00  0.000E+00


 # double differential distributions
 # number of solid angle intervals           1
 # Block n:            1     0.00000000      :   6.28318548    
  1.000E-04  1.089E-04  9.146E-05  5.403E+00  0.000E+00  6.283E+00
  1.089E-04  1.186E-04  9.581E-05  1.055E+01  0.000E+00  6.283E+00
  1.186E-04  1.291E-04  7.383E-05  8.706E+00  0.000E+00  6.283E+00
  1.291E-04  1.406E-04  1.025E-04  2.882E+01  0.000E+00  6.283E+00
  1.406E-04  1.531E-04  7.613E-05  1.177E+01  0.000E+00  6.283E+00
  1.531E-04  1.667E-04  6.125E-05  6.887E+00  0.000E+00  6.283E+00
  1.667E-04  1.815E-04  4.821E-05  4.863E+00  0.000E+00  6.283E+00
  1.815E-04  1.977E-04  4.956E-05  5.281E+00  0.000E+00  6.283E+00
  1.977E-04  2.152E-04  4.495E-05  7.326E+00  0.000E+00  6.283E+00
  2.152E-04  2.344E-04  3.679E-05  1.146E+01  0.000E+00  6.283E+00
  2.344E-04  2.552E-04  3.924E-05  2.059E+01  0.000E+00  6.283E+00
  2.552E-04  2.779E-04  2.738E-05  9.119E+00  0.000E+00  6.283E+00
  2.779E-04  3.026E-04  2.498E-05  2.786E+00  0.000E+00  6.283E+00
  3.026E-04  3.295E-04  2.032E-05  7.024E+00  0.000E+00  6.283E+00
  3.295E-04  3.588E-04  1.829E-05  7.950E+00  0.000E+00  6.283E+00
  3.588E-04  3.907E-04  1.389E-05  8.609E+00  0.000E+00  6.283E+00
  3.907E-04  4.254E-04  1.116E-05  8.547E+00  0.000E+00  6.283E+00
  4.254E-04  4.632E-04  1.152E-05  1.084E+01  0.000E+00  6.283E+00
  4.632E-04  5.044E-04  9.779E-06  9.862E+00  0.000E+00  6.283E+00
  5.044E-04  5.493E-04  8.693E-06  5.718E+00  0.000E+00  6.283E+00
  5.493E-04  5.981E-04  6.580E-06  1.112E+01  0.000E+00  6.283E+00
  5.981E-04  6.513E-04  6.844E-06  1.166E+01  0.000E+00  6.283E+00
  6.513E-04  7.092E-04  5.478E-06  8.230E+00  0.000E+00  6.283E+00
  7.092E-04  7.722E-04  3.872E-06  1.533E+01  0.000E+00  6.283E+00
  7.722E-04  8.409E-04  3.040E-06  6.099E+00  0.000E+00  6.283E+00
  8.409E-04  9.157E-04  2.948E-06  1.154E+01  0.000E+00  6.283E+00
  9.157E-04  9.971E-04  2.368E-06  1.070E+01  0.000E+00  6.283E+00
  9.971E-04  1.086E-03  2.466E-06  1.537E+01  0.000E+00  6.283E+00
  1.086E-03  1.182E-03  1.829E-06  1.375E+01  0.000E+00  6.283E+00
  1.182E-03  1.287E-03  1.880E-06  1.290E+01  0.000E+00  6.283E+00
  1.287E-03  1.402E-03  1.211E-06  1.632E+01  0.000E+00  6.283E+00
  1.402E-03  1.526E-03  1.306E-06  9.071E+00  0.000E+00  6.283E+00
  1.526E-03  1.662E-03  1.585E-06  1.249E+01  0.000E+00  6.283E+00
  1.662E-03  1.810E-03  1.272E-06  2.459E+00  0.000E+00  6.283E+00
  1.810E-03  1.971E-03  1.032E-06  1.609E+01  0.000E+00  6.283E+00
  1.971E-03  2.146E-03  1.124E-06  1.074E+01  0.000E+00  6.283E+00
  2.146E-03  2.337E-03  1.117E-06  1.707E+01  0.000E+00  6.283E+00
  2.337E-03  2.545E-03  1.206E-06  8.007E+00  0.000E+00  6.283E+00
  2.545E-03  2.771E-03  9.660E-07  1.806E+01  0.000E+00  6.283E+00
  2.771E-03  3.017E-03  1.110E-06  2.070E+01  0.000E+00  6.283E+00
  3.017E-03  3.285E-03  1.002E-06  1.231E+01  0.000E+00  6.283E+00
  3.285E-03  3.577E-03  7.677E-07  1.717E+01  0.000E+00  6.283E+00
  3.577E-03  3.895E-03  7.773E-07  1.071E+01  0.000E+00  6.283E+00
  3.895E-03  4.242E-03  7.974E-07  1.233E+01  0.000E+00  6.283E+00
  4.242E-03  4.619E-03  5.966E-07  1.575E+01  0.000E+00  6.283E+00
  4.619E-03  5.030E-03  5.827E-07  1.402E+01  0.000E+00  6.283E+00
  5.030E-03  5.477E-03  6.796E-07  1.531E+01  0.000E+00  6.283E+00
  5.477E-03  5.964E-03  4.796E-07  1.389E+01  0.000E+00  6.283E+00
  5.964E-03  6.494E-03  5.177E-07  1.158E+01  0.000E+00  6.283E+00
  6.494E-03  7.071E-03  3.646E-07  1.154E+01  0.000E+00  6.283E+00
  7.071E-03  7.700E-03  5.581E-07  6.321E+00  0.000E+00  6.283E+00
  7.700E-03  8.384E-03  4.147E-07  1.346E+01  0.000E+00  6.283E+00
  8.384E-03  9.130E-03  5.431E-07  2.720E+01  0.000E+00  6.283E+00
  9.130E-03  9.941E-03  4.951E-07  7.297E+00  0.000E+00  6.283E+00
  9.941E-03  1.083E-02  5.986E-07  1.409E+01  0.000E+00  6.283E+00
  1.083E-02  1.179E-02  5.157E-07  1.123E+01  0.000E+00  6.283E+00
  1.179E-02  1.284E-02  5.163E-07  1.089E+01  0.000E+00  6.283E+00
  1.284E-02  1.398E-02  3.850E-07  1.831E+01  0.000E+00  6.283E+00
  1.398E-02  1.522E-02  4.221E-07  9.144E+00  0.000E+00  6.283E+00
  1.522E-02  1.657E-02  4.215E-07  6.718E+00  0.000E+00  6.283E+00
  1.657E-02  1.805E-02  4.141E-07  9.299E+00  0.000E+00  6.283E+00
  1.805E-02  1.965E-02  4.105E-07  1.673E+01  0.000E+00  6.283E+00
  1.965E-02  2.140E-02  3.361E-07  1.142E+01  0.000E+00  6.283E+00
  2.140E-02  2.330E-02  4.669E-07  1.941E+01  0.000E+00  6.283E+00
  2.330E-02  2.537E-02  3.629E-07  1.481E+01  0.000E+00  6.283E+00
  2.537E-02  2.763E-02  4.676E-07  1.289E+01  0.000E+00  6.283E+00
  2.763E-02  3.008E-02  3.425E-07  6.259E+00  0.000E+00  6.283E+00
  3.008E-02  3.276E-02  2.774E-07  7.358E+00  0.000E+00  6.283E+00
  3.276E-02  3.567E-02  3.261E-07  1.919E+01  0.000E+00  6.283E+00
  3.567E-02  3.884E-02  3.049E-07  1.308E+01  0.000E+00  6.283E+00
  3.884E-02  4.229E-02  2.894E-07  6.762E+00  0.000E+00  6.283E+00
  4.229E-02  4.605E-02  2.230E-07  1.045E+01  0.000E+00  6.283E+00
  4.605E-02  5.015E-02  2.371E-07  9.798E+00  0.000E+00  6.283E+00
  5.015E-02  5.461E-02  1.821E-07  8.694E+00  0.000E+00  6.283E+00
  5.461E-02  5.946E-02  2.075E-07  1.879E+01  0.000E+00  6.283E+00
  5.946E-02  6.475E-02  1.838E-07  1.061E+01  0.000E+00  6.283E+00
  6.475E-02  7.050E-02  1.200E-07  9.342E+00  0.000E+00  6.283E+00
  7.050E-02  7.677E-02  1.057E-07  1.257E+01  0.000E+00  6.283E+00
  7.677E-02  8.360E-02  9.239E-08  8.947E+00  0.000E+00  6.283E+00
  8.360E-02  9.103E-02  6.944E-08  9.280E+00  0.000E+00  6.283E+00
  9.103E-02  9.912E-02  7.538E-08  2.003E+01  0.000E+00  6.283E+00
  9.912E-02  1.079E-01  7.768E-08  2.547E+01  0.000E+00  6.283E+00
  1.079E-01  1.175E-01  5.231E-08  1.432E+01  0.000E+00  6.283E+00
  1.175E-01  1.280E-01  4.015E-08  1.966E+01  0.000E+00  6.283E+00
  1.280E-01  1.394E-01  2.480E-08  1.272E+01  0.000E+00  6.283E+00
  1.394E-01  1.517E-01  2.116E-08  1.532E+01  0.000E+00  6.283E+00
  1.517E-01  1.652E-01  1.509E-08  3.087E+01  0.000E+00  6.283E+00
  1.652E-01  1.799E-01  1.625E-08  1.777E+01  0.000E+00  6.283E+00
  1.799E-01  1.959E-01  1.050E-08  1.011E+01  0.000E+00  6.283E+00
  1.959E-01  2.133E-01  4.802E-09  1.650E+01  0.000E+00  6.283E+00
  2.133E-01  2.323E-01  4.605E-09  1.595E+01  0.000E+00  6.283E+00
  2.323E-01  2.530E-01  1.849E-09  2.800E+01  0.000E+00  6.283E+00
  2.530E-01  2.754E-01  1.057E-09  3.287E+01  0.000E+00  6.283E+00
  2.754E-01  2.999E-01  5.108E-10  2.984E+01  0.000E+00  6.283E+00
  2.999E-01  3.266E-01  3.944E-10  4.108E+01  0.000E+00  6.283E+00
  3.266E-01  3.556E-01  1.366E-10  6.280E+01  0.000E+00  6.283E+00
  3.556E-01  3.873E-01  7.114E-11  9.900E+01  0.000E+00  6.283E+00
  3.873E-01  4.217E-01  0.000E+00  0.000E+00  0.000E+00  6.283E+00
  4.217E-01  4.592E-01  0.000E+00  0.000E+00  0.000E+00  6.283E+00
  4.592E-01  5.000E-01  0.000E+00  0.000E+00  0.000E+00  6.283E+00
  5.000E-01  5.000E-01  0.000E+00  0.000E+00  0.000E+00  6.283E+00

  1.000E-04  1.000E-04  0.000E+00  0.000E+00  6.283E+00  6.283E+00
  1.089E-04  1.089E-04  0.000E+00  0.000E+00  6.283E+00  6.283E+00
  1.186E-04  1.186E-04  0.000E+00  0.000E+00  6.283E+00  6.283E+00
  1.291E-04  1.291E-04  0.000E+00  0.000E+00  6.283E+00  6.283E+00
  1.406E-04  1.406E-04  0.000E+00  0.000E+00  6.283E+00  6.283E+00
  1.531E-04  1.531E-04  0.000E+00  0.000E+00  6.283E+00  6.283E+00
  1.667E-04  1.667E-04  0.000E+00  0.000E+00  6.283E+00  6.283E+00
  1.815E-04  1.815E-04  0.000E+00  0.000E+00  6.283E+00  6.283E+00
  1.977E-04  1.977E-04  0.000E+00  0.000E+00  6.283E+00  6.283E+00
  2.152E-04  2.152E-04  0.000E+00  0.000E+00  6.283E+00  6.283E+00
  2.344E-04  2.344E-04  0.000E+00  0.000E+00  6.283E+00  6.283E+00
  2.552E-04  2.552E-04  0.000E+00  0.000E+00  6.283E+00  6.283E+00
  2.779E-04  2.779E-04  0.000E+00  0.000E+00  6.283E+00  6.283E+00
  3.026E-04  3.026E-04  0.000E+00  0.000E+00  6.283E+00  6.283E+00
  3.295E-04  3.295E-04  0.000E+00  0.000E+00  6.283E+00  6.283E+00
  3.588E-04  3.588E-04  0.000E+00  0.000E+00  6.283E+00  6.283E+00
  3.907E-04  3.907E-04  0.000E+00  0.000E+00  6.283E+00  6.283E+00
  4.254E-04  4.254E-04  0.000E+00  0.000E+00  6.283E+00  6.283E+00
  4.632E-04  4.632E-04  0.000E+00  0.000E+00  6.283E+00  6.283E+00
  5.044E-04  5.044E-04  0.000E+00  0.000E+00  6.283E+00  6.283E+00
  5.493E-04  5.493E-04  0.000E+00  0.000E+00  6.283E+00  6.283E+00
  5.981E-04  5.981E-04  0.000E+00  0.000E+00  6.283E+00  6.283E+00
  6.513E-04  6.513E-04  0.000E+00  0.000E+00  6.283E+00  6.283E+00
  7.092E-04  7.092E-04  0.000E+00  0.000E+00  6.283E+00  6.283E+00
  7.722E-04  7.722E-04  0.000E+00  0.000E+00  6.283E+00  6.283E+00
  8.409E-04  8.409E-04  0.000E+00  0.000E+00  6.283E+00  6.283E+00
  9.157E-04  9.157E-04  0.000E+00  0.000E+00  6.283E+00  6.283E+00
  9.971E-04  9.971E-04  0.000E+00  0.000E+00  6.283E+00  6.283E+00
  1.086E-03  1.086E-03  0.000E+00  0.000E+00  6.283E+00  6.283E+00
  1.182E-03  1.182E-03  0.000E+00  0.000E+00  6.283E+00  6.283E+00
  1.287E-03  1.287E-03  0.000E+00  0.000E+00  6.283E+00  6.283E+00
  1.402E-03  1.402E-03  0.000E+00  0.000E+00  6.283E+00  6.283E+00
  1.526E-03  1.526E-03  0.000E+00  0.000E+00  6.283E+00  6.283E+00
  1.662E-03  1.662E-03  0.000E+00  0.000E+00  6.283E+00  6.283E+00
  1.810E-03  1.810E-03  0.000E+00  0.000E+00  6.283E+00  6.283E+00
  1.971E-03  1.971E-03  0.000E+00  0.000E+00  6.283E+00  6.283E+00
  2.146E-03  2.146E-03  0.000E+00  0.000E+00  6.283E+00  6.283E+00
  2.337E-03  2.337E-03  0.000E+00  0.000E+00  6.283E+00  6.283E+00
  2.545E-03  2.545E-03  0.000E+00  0.000E+00  6.283E+00  6.283E+00
  2.771E-03  2.771E-03  0.000E+00  0.000E+00  6.283E+00  6.283E+00
  3.017E-03  3.017E-03  0.000E+00  0.000E+00  6.283E+00  6.283E+00
  3.285E-03  3.285E-03  0.000E+00  0.000E+00  6.283E+00  6.283E+00
  3.577E-03  3.577E-03  0.000E+00  0.000E+00  6.283E+00  6.283E+00
  3.895E-03  3.895E-03  0.000E+00  0.000E+00  6.283E+00  6.283E+00
  4.242E-03  4.242E-03  0.000E+00  0.000E+00  6.283E+00  6.283E+00
  4.619E-03  4.619E-03  0.000E+00  0.000E+00  6.283E+00  6.283E+00
  5.030E-03  5.030E-03  0.000E+00  0.000E+00  6.283E+00  6.283E+00
  5.477E-03  5.477E-03  0.000E+00  0.000E+00  6.283E+00  6.283E+00
  5.964E-03  5.964E-03  0.000E+00  0.000E+00  6.283E+00  6.283E+00
  6.494E-03  6.494E-03  0.000E+00  0.000E+00  6.283E+00  6.283E+00
  7.071E-03  7.071E-03  0.000E+00  0.000E+00  6.283E+00  6.283E+00
  7.700E-03  7.700E-03  0.000E+00  0.000E+00  6.283E+00  6.283E+00
  8.384E-03  8.384E-03  0.000E+00  0.000E+00  6.283E+00  6.283E+00
  9.130E-03  9.130E-03  0.000E+00  0.000E+00  6.283E+00  6.283E+00
  9.941E-03  9.941E-03  0.000E+00  0.000E+00  6.283E+00  6.283E+00
  1.083E-02  1.083E-02  0.000E+00  0.000E+00  6.283E+00  6.283E+00
  1.179E-02  1.179E-02  0.000E+00  0.000E+00  6.283E+00  6.283E+00
  1.284E-02  1.284E-02  0.000E+00  0.000E+00  6.283E+00  6.283E+00
  1.398E-02  1.398E-02  0.000E+00  0.000E+00  6.283E+00  6.283E+00
  1.522E-02  1.522E-02  0.000E+00  0.000E+00  6.283E+00  6.283E+00
  1.657E-02  1.657E-02  0.000E+00  0.000E+00  6.283E+00  6.283E+00
  1.805E-02  1.805E-02  0.000E+00  0.000E+00  6.283E+00  6.283E+00
  1.965E-02  1.965E-02  0.000E+00  0.000E+00  6.283E+00  6.283E+00
  2.140E-02  2.140E-02  0.000E+00  0.000E+00  6.283E+00  6.283E+00
  2.330E-02  2.330E-02  0.000E+00  0.000E+00  6.283E+00  6.283E+00
  2.537E-02  2.537E-02  0.000E+00  0.000E+00  6.283E+00  6.283E+00
  2.763E-02  2.763E-02  0.000E+00  0.000E+00  6.283E+00  6.283E+00
  3.008E-02  3.008E-02  0.000E+00  0.000E+00  6.283E+00  6.283E+00
  3.276E-02  3.276E-02  0.000E+00  0.000E+00  6.283E+00  6.283E+00
  3.567E-02  3.567E-02  0.000E+00  0.000E+00  6.283E+00  6.283E+00
  3.884E-02  3.884E-02  0.000E+00  0.000E+00  6.283E+00  6.283E+00
  4.229E-02  4.229E-02  0.000E+00  0.000E+00  6.283E+00  6.283E+00
  4.605E-02  4.605E-02  0.000E+00  0.000E+00  6.283E+00  6.283E+00
  5.015E-02  5.015E-02  0.000E+00  0.000E+00  6.283E+00  6.283E+00
  5.461E-02  5.461E-02  0.000E+00  0.000E+00  6.283E+00  6.283E+00
  5.946E-02  5.946E-02  0.000E+00  0.000E+00  6.283E+00  6.283E+00
  6.475E-02  6.475E-02  0.000E+00  0.000E+00  6.283E+00  6.283E+00
  7.050E-02  7.050E-02  0.000E+00  0.000E+00  6.283E+00  6.283E+00
  7.677E-02  7.677E-02  0.000E+00  0.000E+00  6.283E+00  6.283E+00
  8.360E-02  8.360E-02  0.000E+00  0.000E+00  6.283E+00  6.283E+00
  9.103E-02  9.103E-02  0.000E+00  0.000E+00  6.283E+00  6.283E+00
  9.912E-02  9.912E-02  0.000E+00  0.000E+00  6.283E+00  6.283E+00
  1.079E-01  1.079E-01  0.000E+00  0.000E+00  6.283E+00  6.283E+00
  1.175E-01  1.175E-01  0.000E+00  0.000E+00  6.283E+00  6.283E+00
  1.280E-01  1.280E-01  0.000E+00  0.000E+00  6.283E+00  6.283E+00
  1.394E-01  1.394E-01  0.000E+00  0.000E+00  6.283E+00  6.283E+00
  1.517E-01  1.517E-01  0.000E+00  0.000E+00  6.283E+00  6.283E+00
  1.652E-01  1.652E-01  0.000E+00  0.000E+00  6.283E+00  6.283E+00
  1.799E-01  1.799E-01  0.000E+00  0.000E+00  6.283E+00  6.283E+00
  1.959E-01  1.959E-01  0.000E+00  0.000E+00  6.283E+00  6.283E+00
  2.133E-01  2.133E-01  0.000E+00  0.000E+00  6.283E+00  6.283E+00
  2.323E-01  2.323E-01  0.000E+00  0.000E+00  6.283E+00  6.283E+00
  2.530E-01  2.530E-01  0.000E+00  0.000E+00  6.283E+00  6.283E+00
  2.754E-01  2.754E-01  0.000E+00  0.000E+00  6.283E+00  6.283E+00
  2.999E-01  2.999E-01  0.000E+00  0.000E+00  6.283E+00  6.283E+00
  3.266E-01  3.266E-01  0.000E+00  0.000E+00  6.283E+00  6.283E+00
  3.556E-01  3.556E-01  0.000E+00  0.000E+00  6.283E+00  6.283E+00
  3.873E-01  3.873E-01  0.000E+00  0.000E+00  6.283E+00  6.283E+00
  4.217E-01  4.217E-01  0.000E+00  0.000E+00  6.283E+00  6.283E+00
  4.592E-01  4.592E-01  0.000E+00  0.000E+00  6.283E+00  6.283E+00
  5.000E-01  5.000E-01  0.000E+00  0.000E+00  6.283E+00  6.283E+00
