 # Detector n:            1   BdxElec   (integrated over solid angle)
 # N. of energy intervals         100
  1.000E-04  1.089E-04  6.791E-06  7.973E+01
  1.089E-04  1.186E-04  9.830E-06  3.303E+01
  1.186E-04  1.291E-04  2.200E-05  1.905E+01
  1.291E-04  1.406E-04  1.483E-05  4.825E+01
  1.406E-04  1.531E-04  1.734E-05  2.191E+01
  1.531E-04  1.667E-04  2.508E-05  2.437E+01
  1.667E-04  1.815E-04  2.637E-05  1.033E+01
  1.815E-04  1.977E-04  3.241E-05  3.442E+01
  1.977E-04  2.152E-04  1.201E-05  2.013E+01
  2.152E-04  2.344E-04  9.375E-06  3.642E+01
  2.344E-04  2.552E-04  1.827E-05  2.917E+01
  2.552E-04  2.779E-04  6.841E-06  2.480E+01
  2.779E-04  3.026E-04  8.979E-06  2.612E+01
  3.026E-04  3.295E-04  4.241E-06  3.620E+01
  3.295E-04  3.588E-04  1.097E-05  1.039E+01
  3.588E-04  3.907E-04  8.140E-06  3.157E+01
  3.907E-04  4.254E-04  8.679E-06  3.491E+01
  4.254E-04  4.632E-04  8.379E-06  2.849E+01
  4.632E-04  5.044E-04  1.069E-05  1.317E+01
  5.044E-04  5.493E-04  4.526E-06  2.584E+01
  5.493E-04  5.981E-04  8.496E-06  2.138E+01
  5.981E-04  6.513E-04  8.627E-06  7.866E+00
  6.513E-04  7.092E-04  1.020E-05  1.785E+01
  7.092E-04  7.722E-04  8.835E-06  1.490E+01
  7.722E-04  8.409E-04  8.584E-06  2.390E+01
  8.409E-04  9.157E-04  8.688E-06  4.262E+01
  9.157E-04  9.971E-04  8.159E-06  1.707E+01
  9.971E-04  1.086E-03  6.169E-06  2.248E+01
  1.086E-03  1.182E-03  9.380E-06  2.415E+01
  1.182E-03  1.287E-03  6.118E-06  9.724E+00
  1.287E-03  1.402E-03  6.810E-06  1.499E+01
  1.402E-03  1.526E-03  7.131E-06  2.018E+01
  1.526E-03  1.662E-03  8.479E-06  2.368E+01
  1.662E-03  1.810E-03  5.951E-06  1.201E+01
  1.810E-03  1.971E-03  6.013E-06  1.987E+01
  1.971E-03  2.146E-03  5.583E-06  9.435E+00
  2.146E-03  2.337E-03  5.763E-06  5.602E+00
  2.337E-03  2.545E-03  4.583E-06  1.468E+01
  2.545E-03  2.771E-03  3.234E-06  9.837E+00
  2.771E-03  3.017E-03  4.267E-06  1.894E+01
  3.017E-03  3.285E-03  3.280E-06  1.751E+01
  3.285E-03  3.577E-03  4.703E-06  9.511E+00
  3.577E-03  3.895E-03  3.558E-06  1.026E+01
  3.895E-03  4.242E-03  1.663E-06  3.199E+01
  4.242E-03  4.619E-03  7.586E-07  2.796E+01
  4.619E-03  5.030E-03  1.497E-06  1.310E+01
  5.030E-03  5.477E-03  1.072E-06  2.033E+01
  5.477E-03  5.964E-03  7.245E-07  2.897E+01
  5.964E-03  6.494E-03  7.048E-07  4.528E+01
  6.494E-03  7.071E-03  1.423E-07  5.138E+01
  7.071E-03  7.700E-03  2.680E-07  4.964E+01
  7.700E-03  8.384E-03  5.448E-08  6.341E+01
  8.384E-03  9.130E-03  0.000E+00  0.000E+00
  9.130E-03  9.941E-03  0.000E+00  0.000E+00
  9.941E-03  1.083E-02  0.000E+00  0.000E+00
  1.083E-02  1.179E-02  1.066E-08  9.900E+01
  1.179E-02  1.284E-02  0.000E+00  0.000E+00
  1.284E-02  1.398E-02  0.000E+00  0.000E+00
  1.398E-02  1.522E-02  0.000E+00  0.000E+00
  1.522E-02  1.657E-02  0.000E+00  0.000E+00
  1.657E-02  1.805E-02  0.000E+00  0.000E+00
  1.805E-02  1.965E-02  0.000E+00  0.000E+00
  1.965E-02  2.140E-02  0.000E+00  0.000E+00
  2.140E-02  2.330E-02  0.000E+00  0.000E+00
  2.330E-02  2.537E-02  0.000E+00  0.000E+00
  2.537E-02  2.763E-02  0.000E+00  0.000E+00
  2.763E-02  3.008E-02  0.000E+00  0.000E+00
  3.008E-02  3.276E-02  0.000E+00  0.000E+00
  3.276E-02  3.567E-02  0.000E+00  0.000E+00
  3.567E-02  3.884E-02  0.000E+00  0.000E+00
  3.884E-02  4.229E-02  0.000E+00  0.000E+00
  4.229E-02  4.605E-02  0.000E+00  0.000E+00
  4.605E-02  5.015E-02  0.000E+00  0.000E+00
  5.015E-02  5.461E-02  0.000E+00  0.000E+00
  5.461E-02  5.946E-02  0.000E+00  0.000E+00
  5.946E-02  6.475E-02  0.000E+00  0.000E+00
  6.475E-02  7.050E-02  0.000E+00  0.000E+00
  7.050E-02  7.677E-02  0.000E+00  0.000E+00
  7.677E-02  8.360E-02  0.000E+00  0.000E+00
  8.360E-02  9.103E-02  0.000E+00  0.000E+00
  9.103E-02  9.912E-02  0.000E+00  0.000E+00
  9.912E-02  1.079E-01  0.000E+00  0.000E+00
  1.079E-01  1.175E-01  0.000E+00  0.000E+00
  1.175E-01  1.280E-01  0.000E+00  0.000E+00
  1.280E-01  1.394E-01  0.000E+00  0.000E+00
  1.394E-01  1.517E-01  0.000E+00  0.000E+00
  1.517E-01  1.652E-01  0.000E+00  0.000E+00
  1.652E-01  1.799E-01  0.000E+00  0.000E+00
  1.799E-01  1.959E-01  0.000E+00  0.000E+00
  1.959E-01  2.133E-01  0.000E+00  0.000E+00
  2.133E-01  2.323E-01  0.000E+00  0.000E+00
  2.323E-01  2.530E-01  0.000E+00  0.000E+00
  2.530E-01  2.754E-01  0.000E+00  0.000E+00
  2.754E-01  2.999E-01  0.000E+00  0.000E+00
  2.999E-01  3.266E-01  0.000E+00  0.000E+00
  3.266E-01  3.556E-01  0.000E+00  0.000E+00
  3.556E-01  3.873E-01  0.000E+00  0.000E+00
  3.873E-01  4.217E-01  0.000E+00  0.000E+00
  4.217E-01  4.592E-01  0.000E+00  0.000E+00
  4.592E-01  5.000E-01  0.000E+00  0.000E+00


 # double differential distributions
 # number of solid angle intervals           1
 # Block n:            1     0.00000000      :   6.28318548    
  1.000E-04  1.089E-04  1.081E-06  7.973E+01  0.000E+00  6.283E+00
  1.089E-04  1.186E-04  1.565E-06  3.303E+01  0.000E+00  6.283E+00
  1.186E-04  1.291E-04  3.502E-06  1.905E+01  0.000E+00  6.283E+00
  1.291E-04  1.406E-04  2.360E-06  4.825E+01  0.000E+00  6.283E+00
  1.406E-04  1.531E-04  2.759E-06  2.191E+01  0.000E+00  6.283E+00
  1.531E-04  1.667E-04  3.992E-06  2.437E+01  0.000E+00  6.283E+00
  1.667E-04  1.815E-04  4.197E-06  1.033E+01  0.000E+00  6.283E+00
  1.815E-04  1.977E-04  5.159E-06  3.442E+01  0.000E+00  6.283E+00
  1.977E-04  2.152E-04  1.911E-06  2.013E+01  0.000E+00  6.283E+00
  2.152E-04  2.344E-04  1.492E-06  3.642E+01  0.000E+00  6.283E+00
  2.344E-04  2.552E-04  2.908E-06  2.917E+01  0.000E+00  6.283E+00
  2.552E-04  2.779E-04  1.089E-06  2.480E+01  0.000E+00  6.283E+00
  2.779E-04  3.026E-04  1.429E-06  2.612E+01  0.000E+00  6.283E+00
  3.026E-04  3.295E-04  6.750E-07  3.620E+01  0.000E+00  6.283E+00
  3.295E-04  3.588E-04  1.746E-06  1.039E+01  0.000E+00  6.283E+00
  3.588E-04  3.907E-04  1.295E-06  3.157E+01  0.000E+00  6.283E+00
  3.907E-04  4.254E-04  1.381E-06  3.491E+01  0.000E+00  6.283E+00
  4.254E-04  4.632E-04  1.334E-06  2.849E+01  0.000E+00  6.283E+00
  4.632E-04  5.044E-04  1.701E-06  1.317E+01  0.000E+00  6.283E+00
  5.044E-04  5.493E-04  7.204E-07  2.584E+01  0.000E+00  6.283E+00
  5.493E-04  5.981E-04  1.352E-06  2.138E+01  0.000E+00  6.283E+00
  5.981E-04  6.513E-04  1.373E-06  7.866E+00  0.000E+00  6.283E+00
  6.513E-04  7.092E-04  1.624E-06  1.785E+01  0.000E+00  6.283E+00
  7.092E-04  7.722E-04  1.406E-06  1.490E+01  0.000E+00  6.283E+00
  7.722E-04  8.409E-04  1.366E-06  2.390E+01  0.000E+00  6.283E+00
  8.409E-04  9.157E-04  1.383E-06  4.262E+01  0.000E+00  6.283E+00
  9.157E-04  9.971E-04  1.299E-06  1.707E+01  0.000E+00  6.283E+00
  9.971E-04  1.086E-03  9.819E-07  2.248E+01  0.000E+00  6.283E+00
  1.086E-03  1.182E-03  1.493E-06  2.415E+01  0.000E+00  6.283E+00
  1.182E-03  1.287E-03  9.738E-07  9.724E+00  0.000E+00  6.283E+00
  1.287E-03  1.402E-03  1.084E-06  1.499E+01  0.000E+00  6.283E+00
  1.402E-03  1.526E-03  1.135E-06  2.018E+01  0.000E+00  6.283E+00
  1.526E-03  1.662E-03  1.349E-06  2.368E+01  0.000E+00  6.283E+00
  1.662E-03  1.810E-03  9.471E-07  1.201E+01  0.000E+00  6.283E+00
  1.810E-03  1.971E-03  9.570E-07  1.987E+01  0.000E+00  6.283E+00
  1.971E-03  2.146E-03  8.886E-07  9.435E+00  0.000E+00  6.283E+00
  2.146E-03  2.337E-03  9.172E-07  5.602E+00  0.000E+00  6.283E+00
  2.337E-03  2.545E-03  7.295E-07  1.468E+01  0.000E+00  6.283E+00
  2.545E-03  2.771E-03  5.148E-07  9.837E+00  0.000E+00  6.283E+00
  2.771E-03  3.017E-03  6.791E-07  1.894E+01  0.000E+00  6.283E+00
  3.017E-03  3.285E-03  5.220E-07  1.751E+01  0.000E+00  6.283E+00
  3.285E-03  3.577E-03  7.486E-07  9.511E+00  0.000E+00  6.283E+00
  3.577E-03  3.895E-03  5.663E-07  1.026E+01  0.000E+00  6.283E+00
  3.895E-03  4.242E-03  2.647E-07  3.199E+01  0.000E+00  6.283E+00
  4.242E-03  4.619E-03  1.207E-07  2.796E+01  0.000E+00  6.283E+00
  4.619E-03  5.030E-03  2.382E-07  1.310E+01  0.000E+00  6.283E+00
  5.030E-03  5.477E-03  1.706E-07  2.033E+01  0.000E+00  6.283E+00
  5.477E-03  5.964E-03  1.153E-07  2.897E+01  0.000E+00  6.283E+00
  5.964E-03  6.494E-03  1.122E-07  4.528E+01  0.000E+00  6.283E+00
  6.494E-03  7.071E-03  2.264E-08  5.138E+01  0.000E+00  6.283E+00
  7.071E-03  7.700E-03  4.266E-08  4.964E+01  0.000E+00  6.283E+00
  7.700E-03  8.384E-03  8.670E-09  6.341E+01  0.000E+00  6.283E+00
  8.384E-03  9.130E-03  0.000E+00  0.000E+00  0.000E+00  6.283E+00
  9.130E-03  9.941E-03  0.000E+00  0.000E+00  0.000E+00  6.283E+00
  9.941E-03  1.083E-02  0.000E+00  0.000E+00  0.000E+00  6.283E+00
  1.083E-02  1.179E-02  1.696E-09  9.900E+01  0.000E+00  6.283E+00
  1.179E-02  1.284E-02  0.000E+00  0.000E+00  0.000E+00  6.283E+00
  1.284E-02  1.398E-02  0.000E+00  0.000E+00  0.000E+00  6.283E+00
  1.398E-02  1.522E-02  0.000E+00  0.000E+00  0.000E+00  6.283E+00
  1.522E-02  1.657E-02  0.000E+00  0.000E+00  0.000E+00  6.283E+00
  1.657E-02  1.805E-02  0.000E+00  0.000E+00  0.000E+00  6.283E+00
  1.805E-02  1.965E-02  0.000E+00  0.000E+00  0.000E+00  6.283E+00
  1.965E-02  2.140E-02  0.000E+00  0.000E+00  0.000E+00  6.283E+00
  2.140E-02  2.330E-02  0.000E+00  0.000E+00  0.000E+00  6.283E+00
  2.330E-02  2.537E-02  0.000E+00  0.000E+00  0.000E+00  6.283E+00
  2.537E-02  2.763E-02  0.000E+00  0.000E+00  0.000E+00  6.283E+00
  2.763E-02  3.008E-02  0.000E+00  0.000E+00  0.000E+00  6.283E+00
  3.008E-02  3.276E-02  0.000E+00  0.000E+00  0.000E+00  6.283E+00
  3.276E-02  3.567E-02  0.000E+00  0.000E+00  0.000E+00  6.283E+00
  3.567E-02  3.884E-02  0.000E+00  0.000E+00  0.000E+00  6.283E+00
  3.884E-02  4.229E-02  0.000E+00  0.000E+00  0.000E+00  6.283E+00
  4.229E-02  4.605E-02  0.000E+00  0.000E+00  0.000E+00  6.283E+00
  4.605E-02  5.015E-02  0.000E+00  0.000E+00  0.000E+00  6.283E+00
  5.015E-02  5.461E-02  0.000E+00  0.000E+00  0.000E+00  6.283E+00
  5.461E-02  5.946E-02  0.000E+00  0.000E+00  0.000E+00  6.283E+00
  5.946E-02  6.475E-02  0.000E+00  0.000E+00  0.000E+00  6.283E+00
  6.475E-02  7.050E-02  0.000E+00  0.000E+00  0.000E+00  6.283E+00
  7.050E-02  7.677E-02  0.000E+00  0.000E+00  0.000E+00  6.283E+00
  7.677E-02  8.360E-02  0.000E+00  0.000E+00  0.000E+00  6.283E+00
  8.360E-02  9.103E-02  0.000E+00  0.000E+00  0.000E+00  6.283E+00
  9.103E-02  9.912E-02  0.000E+00  0.000E+00  0.000E+00  6.283E+00
  9.912E-02  1.079E-01  0.000E+00  0.000E+00  0.000E+00  6.283E+00
  1.079E-01  1.175E-01  0.000E+00  0.000E+00  0.000E+00  6.283E+00
  1.175E-01  1.280E-01  0.000E+00  0.000E+00  0.000E+00  6.283E+00
  1.280E-01  1.394E-01  0.000E+00  0.000E+00  0.000E+00  6.283E+00
  1.394E-01  1.517E-01  0.000E+00  0.000E+00  0.000E+00  6.283E+00
  1.517E-01  1.652E-01  0.000E+00  0.000E+00  0.000E+00  6.283E+00
  1.652E-01  1.799E-01  0.000E+00  0.000E+00  0.000E+00  6.283E+00
  1.799E-01  1.959E-01  0.000E+00  0.000E+00  0.000E+00  6.283E+00
  1.959E-01  2.133E-01  0.000E+00  0.000E+00  0.000E+00  6.283E+00
  2.133E-01  2.323E-01  0.000E+00  0.000E+00  0.000E+00  6.283E+00
  2.323E-01  2.530E-01  0.000E+00  0.000E+00  0.000E+00  6.283E+00
  2.530E-01  2.754E-01  0.000E+00  0.000E+00  0.000E+00  6.283E+00
  2.754E-01  2.999E-01  0.000E+00  0.000E+00  0.000E+00  6.283E+00
  2.999E-01  3.266E-01  0.000E+00  0.000E+00  0.000E+00  6.283E+00
  3.266E-01  3.556E-01  0.000E+00  0.000E+00  0.000E+00  6.283E+00
  3.556E-01  3.873E-01  0.000E+00  0.000E+00  0.000E+00  6.283E+00
  3.873E-01  4.217E-01  0.000E+00  0.000E+00  0.000E+00  6.283E+00
  4.217E-01  4.592E-01  0.000E+00  0.000E+00  0.000E+00  6.283E+00
  4.592E-01  5.000E-01  0.000E+00  0.000E+00  0.000E+00  6.283E+00
  5.000E-01  5.000E-01  0.000E+00  0.000E+00  0.000E+00  6.283E+00

  1.000E-04  1.000E-04  0.000E+00  0.000E+00  6.283E+00  6.283E+00
  1.089E-04  1.089E-04  0.000E+00  0.000E+00  6.283E+00  6.283E+00
  1.186E-04  1.186E-04  0.000E+00  0.000E+00  6.283E+00  6.283E+00
  1.291E-04  1.291E-04  0.000E+00  0.000E+00  6.283E+00  6.283E+00
  1.406E-04  1.406E-04  0.000E+00  0.000E+00  6.283E+00  6.283E+00
  1.531E-04  1.531E-04  0.000E+00  0.000E+00  6.283E+00  6.283E+00
  1.667E-04  1.667E-04  0.000E+00  0.000E+00  6.283E+00  6.283E+00
  1.815E-04  1.815E-04  0.000E+00  0.000E+00  6.283E+00  6.283E+00
  1.977E-04  1.977E-04  0.000E+00  0.000E+00  6.283E+00  6.283E+00
  2.152E-04  2.152E-04  0.000E+00  0.000E+00  6.283E+00  6.283E+00
  2.344E-04  2.344E-04  0.000E+00  0.000E+00  6.283E+00  6.283E+00
  2.552E-04  2.552E-04  0.000E+00  0.000E+00  6.283E+00  6.283E+00
  2.779E-04  2.779E-04  0.000E+00  0.000E+00  6.283E+00  6.283E+00
  3.026E-04  3.026E-04  0.000E+00  0.000E+00  6.283E+00  6.283E+00
  3.295E-04  3.295E-04  0.000E+00  0.000E+00  6.283E+00  6.283E+00
  3.588E-04  3.588E-04  0.000E+00  0.000E+00  6.283E+00  6.283E+00
  3.907E-04  3.907E-04  0.000E+00  0.000E+00  6.283E+00  6.283E+00
  4.254E-04  4.254E-04  0.000E+00  0.000E+00  6.283E+00  6.283E+00
  4.632E-04  4.632E-04  0.000E+00  0.000E+00  6.283E+00  6.283E+00
  5.044E-04  5.044E-04  0.000E+00  0.000E+00  6.283E+00  6.283E+00
  5.493E-04  5.493E-04  0.000E+00  0.000E+00  6.283E+00  6.283E+00
  5.981E-04  5.981E-04  0.000E+00  0.000E+00  6.283E+00  6.283E+00
  6.513E-04  6.513E-04  0.000E+00  0.000E+00  6.283E+00  6.283E+00
  7.092E-04  7.092E-04  0.000E+00  0.000E+00  6.283E+00  6.283E+00
  7.722E-04  7.722E-04  0.000E+00  0.000E+00  6.283E+00  6.283E+00
  8.409E-04  8.409E-04  0.000E+00  0.000E+00  6.283E+00  6.283E+00
  9.157E-04  9.157E-04  0.000E+00  0.000E+00  6.283E+00  6.283E+00
  9.971E-04  9.971E-04  0.000E+00  0.000E+00  6.283E+00  6.283E+00
  1.086E-03  1.086E-03  0.000E+00  0.000E+00  6.283E+00  6.283E+00
  1.182E-03  1.182E-03  0.000E+00  0.000E+00  6.283E+00  6.283E+00
  1.287E-03  1.287E-03  0.000E+00  0.000E+00  6.283E+00  6.283E+00
  1.402E-03  1.402E-03  0.000E+00  0.000E+00  6.283E+00  6.283E+00
  1.526E-03  1.526E-03  0.000E+00  0.000E+00  6.283E+00  6.283E+00
  1.662E-03  1.662E-03  0.000E+00  0.000E+00  6.283E+00  6.283E+00
  1.810E-03  1.810E-03  0.000E+00  0.000E+00  6.283E+00  6.283E+00
  1.971E-03  1.971E-03  0.000E+00  0.000E+00  6.283E+00  6.283E+00
  2.146E-03  2.146E-03  0.000E+00  0.000E+00  6.283E+00  6.283E+00
  2.337E-03  2.337E-03  0.000E+00  0.000E+00  6.283E+00  6.283E+00
  2.545E-03  2.545E-03  0.000E+00  0.000E+00  6.283E+00  6.283E+00
  2.771E-03  2.771E-03  0.000E+00  0.000E+00  6.283E+00  6.283E+00
  3.017E-03  3.017E-03  0.000E+00  0.000E+00  6.283E+00  6.283E+00
  3.285E-03  3.285E-03  0.000E+00  0.000E+00  6.283E+00  6.283E+00
  3.577E-03  3.577E-03  0.000E+00  0.000E+00  6.283E+00  6.283E+00
  3.895E-03  3.895E-03  0.000E+00  0.000E+00  6.283E+00  6.283E+00
  4.242E-03  4.242E-03  0.000E+00  0.000E+00  6.283E+00  6.283E+00
  4.619E-03  4.619E-03  0.000E+00  0.000E+00  6.283E+00  6.283E+00
  5.030E-03  5.030E-03  0.000E+00  0.000E+00  6.283E+00  6.283E+00
  5.477E-03  5.477E-03  0.000E+00  0.000E+00  6.283E+00  6.283E+00
  5.964E-03  5.964E-03  0.000E+00  0.000E+00  6.283E+00  6.283E+00
  6.494E-03  6.494E-03  0.000E+00  0.000E+00  6.283E+00  6.283E+00
  7.071E-03  7.071E-03  0.000E+00  0.000E+00  6.283E+00  6.283E+00
  7.700E-03  7.700E-03  0.000E+00  0.000E+00  6.283E+00  6.283E+00
  8.384E-03  8.384E-03  0.000E+00  0.000E+00  6.283E+00  6.283E+00
  9.130E-03  9.130E-03  0.000E+00  0.000E+00  6.283E+00  6.283E+00
  9.941E-03  9.941E-03  0.000E+00  0.000E+00  6.283E+00  6.283E+00
  1.083E-02  1.083E-02  0.000E+00  0.000E+00  6.283E+00  6.283E+00
  1.179E-02  1.179E-02  0.000E+00  0.000E+00  6.283E+00  6.283E+00
  1.284E-02  1.284E-02  0.000E+00  0.000E+00  6.283E+00  6.283E+00
  1.398E-02  1.398E-02  0.000E+00  0.000E+00  6.283E+00  6.283E+00
  1.522E-02  1.522E-02  0.000E+00  0.000E+00  6.283E+00  6.283E+00
  1.657E-02  1.657E-02  0.000E+00  0.000E+00  6.283E+00  6.283E+00
  1.805E-02  1.805E-02  0.000E+00  0.000E+00  6.283E+00  6.283E+00
  1.965E-02  1.965E-02  0.000E+00  0.000E+00  6.283E+00  6.283E+00
  2.140E-02  2.140E-02  0.000E+00  0.000E+00  6.283E+00  6.283E+00
  2.330E-02  2.330E-02  0.000E+00  0.000E+00  6.283E+00  6.283E+00
  2.537E-02  2.537E-02  0.000E+00  0.000E+00  6.283E+00  6.283E+00
  2.763E-02  2.763E-02  0.000E+00  0.000E+00  6.283E+00  6.283E+00
  3.008E-02  3.008E-02  0.000E+00  0.000E+00  6.283E+00  6.283E+00
  3.276E-02  3.276E-02  0.000E+00  0.000E+00  6.283E+00  6.283E+00
  3.567E-02  3.567E-02  0.000E+00  0.000E+00  6.283E+00  6.283E+00
  3.884E-02  3.884E-02  0.000E+00  0.000E+00  6.283E+00  6.283E+00
  4.229E-02  4.229E-02  0.000E+00  0.000E+00  6.283E+00  6.283E+00
  4.605E-02  4.605E-02  0.000E+00  0.000E+00  6.283E+00  6.283E+00
  5.015E-02  5.015E-02  0.000E+00  0.000E+00  6.283E+00  6.283E+00
  5.461E-02  5.461E-02  0.000E+00  0.000E+00  6.283E+00  6.283E+00
  5.946E-02  5.946E-02  0.000E+00  0.000E+00  6.283E+00  6.283E+00
  6.475E-02  6.475E-02  0.000E+00  0.000E+00  6.283E+00  6.283E+00
  7.050E-02  7.050E-02  0.000E+00  0.000E+00  6.283E+00  6.283E+00
  7.677E-02  7.677E-02  0.000E+00  0.000E+00  6.283E+00  6.283E+00
  8.360E-02  8.360E-02  0.000E+00  0.000E+00  6.283E+00  6.283E+00
  9.103E-02  9.103E-02  0.000E+00  0.000E+00  6.283E+00  6.283E+00
  9.912E-02  9.912E-02  0.000E+00  0.000E+00  6.283E+00  6.283E+00
  1.079E-01  1.079E-01  0.000E+00  0.000E+00  6.283E+00  6.283E+00
  1.175E-01  1.175E-01  0.000E+00  0.000E+00  6.283E+00  6.283E+00
  1.280E-01  1.280E-01  0.000E+00  0.000E+00  6.283E+00  6.283E+00
  1.394E-01  1.394E-01  0.000E+00  0.000E+00  6.283E+00  6.283E+00
  1.517E-01  1.517E-01  0.000E+00  0.000E+00  6.283E+00  6.283E+00
  1.652E-01  1.652E-01  0.000E+00  0.000E+00  6.283E+00  6.283E+00
  1.799E-01  1.799E-01  0.000E+00  0.000E+00  6.283E+00  6.283E+00
  1.959E-01  1.959E-01  0.000E+00  0.000E+00  6.283E+00  6.283E+00
  2.133E-01  2.133E-01  0.000E+00  0.000E+00  6.283E+00  6.283E+00
  2.323E-01  2.323E-01  0.000E+00  0.000E+00  6.283E+00  6.283E+00
  2.530E-01  2.530E-01  0.000E+00  0.000E+00  6.283E+00  6.283E+00
  2.754E-01  2.754E-01  0.000E+00  0.000E+00  6.283E+00  6.283E+00
  2.999E-01  2.999E-01  0.000E+00  0.000E+00  6.283E+00  6.283E+00
  3.266E-01  3.266E-01  0.000E+00  0.000E+00  6.283E+00  6.283E+00
  3.556E-01  3.556E-01  0.000E+00  0.000E+00  6.283E+00  6.283E+00
  3.873E-01  3.873E-01  0.000E+00  0.000E+00  6.283E+00  6.283E+00
  4.217E-01  4.217E-01  0.000E+00  0.000E+00  6.283E+00  6.283E+00
  4.592E-01  4.592E-01  0.000E+00  0.000E+00  6.283E+00  6.283E+00
  5.000E-01  5.000E-01  0.000E+00  0.000E+00  6.283E+00  6.283E+00
