 # Detector n:            1   BdxElec   (integrated over solid angle)
 # N. of energy intervals         100
  1.000E-04  1.089E-04  5.014E-04  1.254E+01
  1.089E-04  1.186E-04  4.190E-04  3.677E+00
  1.186E-04  1.291E-04  4.000E-04  7.369E+00
  1.291E-04  1.406E-04  3.687E-04  6.363E+00
  1.406E-04  1.531E-04  2.999E-04  8.087E+00
  1.531E-04  1.667E-04  2.376E-04  4.095E+00
  1.667E-04  1.815E-04  1.734E-04  9.288E+00
  1.815E-04  1.977E-04  1.619E-04  6.731E+00
  1.977E-04  2.152E-04  1.569E-04  2.460E+01
  2.152E-04  2.344E-04  1.037E-04  7.644E+00
  2.344E-04  2.552E-04  8.000E-05  3.611E+00
  2.552E-04  2.779E-04  6.242E-05  1.119E+01
  2.779E-04  3.026E-04  4.077E-05  1.476E+01
  3.026E-04  3.295E-04  2.627E-05  1.852E+01
  3.295E-04  3.588E-04  1.558E-05  2.234E+01
  3.588E-04  3.907E-04  5.884E-06  2.166E+01
  3.907E-04  4.254E-04  4.933E-06  3.134E+01
  4.254E-04  4.632E-04  4.626E-06  3.428E+01
  4.632E-04  5.044E-04  1.474E-06  6.183E+01
  5.044E-04  5.493E-04  2.822E-06  2.432E+01
  5.493E-04  5.981E-04  4.692E-06  1.177E+01
  5.981E-04  6.513E-04  2.556E-06  5.829E+01
  6.513E-04  7.092E-04  3.221E-06  3.195E+01
  7.092E-04  7.722E-04  3.792E-06  2.122E+01
  7.722E-04  8.409E-04  4.462E-06  2.102E+01
  8.409E-04  9.157E-04  2.447E-06  1.722E+01
  9.157E-04  9.971E-04  4.385E-06  1.805E+01
  9.971E-04  1.086E-03  4.291E-06  1.681E+01
  1.086E-03  1.182E-03  2.246E-06  3.160E+01
  1.182E-03  1.287E-03  5.585E-06  3.149E+01
  1.287E-03  1.402E-03  3.046E-06  3.235E+01
  1.402E-03  1.526E-03  3.319E-06  7.475E+00
  1.526E-03  1.662E-03  2.423E-06  2.059E+01
  1.662E-03  1.810E-03  2.856E-06  2.172E+01
  1.810E-03  1.971E-03  1.449E-06  3.664E+01
  1.971E-03  2.146E-03  1.902E-06  1.474E+01
  2.146E-03  2.337E-03  1.996E-06  1.719E+01
  2.337E-03  2.545E-03  1.837E-06  3.259E+01
  2.545E-03  2.771E-03  1.908E-06  3.072E+01
  2.771E-03  3.017E-03  1.173E-06  2.107E+01
  3.017E-03  3.285E-03  2.442E-06  3.769E+01
  3.285E-03  3.577E-03  1.816E-06  1.871E+01
  3.577E-03  3.895E-03  1.074E-06  2.684E+01
  3.895E-03  4.242E-03  9.331E-07  2.957E+01
  4.242E-03  4.619E-03  3.770E-07  2.949E+01
  4.619E-03  5.030E-03  4.202E-07  6.458E+01
  5.030E-03  5.477E-03  2.959E-07  4.434E+01
  5.477E-03  5.964E-03  9.402E-08  6.485E+01
  5.964E-03  6.494E-03  4.393E-07  4.800E+01
  6.494E-03  7.071E-03  0.000E+00  0.000E+00
  7.071E-03  7.700E-03  1.564E-07  5.975E+01
  7.700E-03  8.384E-03  3.533E-08  9.900E+01
  8.384E-03  9.130E-03  7.014E-08  9.900E+01
  9.130E-03  9.941E-03  0.000E+00  0.000E+00
  9.941E-03  1.083E-02  2.705E-08  9.900E+01
  1.083E-02  1.179E-02  0.000E+00  0.000E+00
  1.179E-02  1.284E-02  0.000E+00  0.000E+00
  1.284E-02  1.398E-02  2.770E-08  9.900E+01
  1.398E-02  1.522E-02  9.664E-09  9.900E+01
  1.522E-02  1.657E-02  1.235E-08  9.900E+01
  1.657E-02  1.805E-02  0.000E+00  0.000E+00
  1.805E-02  1.965E-02  1.333E-08  9.900E+01
  1.965E-02  2.140E-02  2.520E-08  9.900E+01
  2.140E-02  2.330E-02  5.590E-09  9.900E+01
  2.330E-02  2.537E-02  0.000E+00  0.000E+00
  2.537E-02  2.763E-02  4.851E-09  9.900E+01
  2.763E-02  3.008E-02  4.030E-08  8.516E+01
  3.008E-02  3.276E-02  1.669E-08  9.900E+01
  3.276E-02  3.567E-02  1.035E-08  9.900E+01
  3.567E-02  3.884E-02  0.000E+00  0.000E+00
  3.884E-02  4.229E-02  0.000E+00  0.000E+00
  4.229E-02  4.605E-02  0.000E+00  0.000E+00
  4.605E-02  5.015E-02  2.849E-09  9.900E+01
  5.015E-02  5.461E-02  0.000E+00  0.000E+00
  5.461E-02  5.946E-02  3.015E-09  9.900E+01
  5.946E-02  6.475E-02  1.324E-08  9.900E+01
  6.475E-02  7.050E-02  0.000E+00  0.000E+00
  7.050E-02  7.677E-02  5.092E-09  9.900E+01
  7.677E-02  8.360E-02  5.712E-09  9.900E+01
  8.360E-02  9.103E-02  0.000E+00  0.000E+00
  9.103E-02  9.912E-02  0.000E+00  0.000E+00
  9.912E-02  1.079E-01  0.000E+00  0.000E+00
  1.079E-01  1.175E-01  0.000E+00  0.000E+00
  1.175E-01  1.280E-01  0.000E+00  0.000E+00
  1.280E-01  1.394E-01  0.000E+00  0.000E+00
  1.394E-01  1.517E-01  0.000E+00  0.000E+00
  1.517E-01  1.652E-01  0.000E+00  0.000E+00
  1.652E-01  1.799E-01  0.000E+00  0.000E+00
  1.799E-01  1.959E-01  0.000E+00  0.000E+00
  1.959E-01  2.133E-01  0.000E+00  0.000E+00
  2.133E-01  2.323E-01  0.000E+00  0.000E+00
  2.323E-01  2.530E-01  0.000E+00  0.000E+00
  2.530E-01  2.754E-01  0.000E+00  0.000E+00
  2.754E-01  2.999E-01  0.000E+00  0.000E+00
  2.999E-01  3.266E-01  0.000E+00  0.000E+00
  3.266E-01  3.556E-01  0.000E+00  0.000E+00
  3.556E-01  3.873E-01  0.000E+00  0.000E+00
  3.873E-01  4.217E-01  0.000E+00  0.000E+00
  4.217E-01  4.592E-01  0.000E+00  0.000E+00
  4.592E-01  5.000E-01  0.000E+00  0.000E+00


 # double differential distributions
 # number of solid angle intervals           1
 # Block n:            1     0.00000000      :   6.28318548    
  1.000E-04  1.089E-04  7.981E-05  1.254E+01  0.000E+00  6.283E+00
  1.089E-04  1.186E-04  6.669E-05  3.677E+00  0.000E+00  6.283E+00
  1.186E-04  1.291E-04  6.366E-05  7.369E+00  0.000E+00  6.283E+00
  1.291E-04  1.406E-04  5.869E-05  6.363E+00  0.000E+00  6.283E+00
  1.406E-04  1.531E-04  4.773E-05  8.087E+00  0.000E+00  6.283E+00
  1.531E-04  1.667E-04  3.782E-05  4.095E+00  0.000E+00  6.283E+00
  1.667E-04  1.815E-04  2.760E-05  9.288E+00  0.000E+00  6.283E+00
  1.815E-04  1.977E-04  2.577E-05  6.731E+00  0.000E+00  6.283E+00
  1.977E-04  2.152E-04  2.498E-05  2.460E+01  0.000E+00  6.283E+00
  2.152E-04  2.344E-04  1.651E-05  7.644E+00  0.000E+00  6.283E+00
  2.344E-04  2.552E-04  1.273E-05  3.611E+00  0.000E+00  6.283E+00
  2.552E-04  2.779E-04  9.934E-06  1.119E+01  0.000E+00  6.283E+00
  2.779E-04  3.026E-04  6.489E-06  1.476E+01  0.000E+00  6.283E+00
  3.026E-04  3.295E-04  4.181E-06  1.852E+01  0.000E+00  6.283E+00
  3.295E-04  3.588E-04  2.479E-06  2.234E+01  0.000E+00  6.283E+00
  3.588E-04  3.907E-04  9.365E-07  2.166E+01  0.000E+00  6.283E+00
  3.907E-04  4.254E-04  7.851E-07  3.134E+01  0.000E+00  6.283E+00
  4.254E-04  4.632E-04  7.362E-07  3.428E+01  0.000E+00  6.283E+00
  4.632E-04  5.044E-04  2.346E-07  6.183E+01  0.000E+00  6.283E+00
  5.044E-04  5.493E-04  4.491E-07  2.432E+01  0.000E+00  6.283E+00
  5.493E-04  5.981E-04  7.467E-07  1.177E+01  0.000E+00  6.283E+00
  5.981E-04  6.513E-04  4.068E-07  5.829E+01  0.000E+00  6.283E+00
  6.513E-04  7.092E-04  5.127E-07  3.195E+01  0.000E+00  6.283E+00
  7.092E-04  7.722E-04  6.035E-07  2.122E+01  0.000E+00  6.283E+00
  7.722E-04  8.409E-04  7.101E-07  2.102E+01  0.000E+00  6.283E+00
  8.409E-04  9.157E-04  3.895E-07  1.722E+01  0.000E+00  6.283E+00
  9.157E-04  9.971E-04  6.979E-07  1.805E+01  0.000E+00  6.283E+00
  9.971E-04  1.086E-03  6.829E-07  1.681E+01  0.000E+00  6.283E+00
  1.086E-03  1.182E-03  3.575E-07  3.160E+01  0.000E+00  6.283E+00
  1.182E-03  1.287E-03  8.889E-07  3.149E+01  0.000E+00  6.283E+00
  1.287E-03  1.402E-03  4.847E-07  3.235E+01  0.000E+00  6.283E+00
  1.402E-03  1.526E-03  5.282E-07  7.475E+00  0.000E+00  6.283E+00
  1.526E-03  1.662E-03  3.856E-07  2.059E+01  0.000E+00  6.283E+00
  1.662E-03  1.810E-03  4.546E-07  2.172E+01  0.000E+00  6.283E+00
  1.810E-03  1.971E-03  2.306E-07  3.664E+01  0.000E+00  6.283E+00
  1.971E-03  2.146E-03  3.027E-07  1.474E+01  0.000E+00  6.283E+00
  2.146E-03  2.337E-03  3.177E-07  1.719E+01  0.000E+00  6.283E+00
  2.337E-03  2.545E-03  2.924E-07  3.259E+01  0.000E+00  6.283E+00
  2.545E-03  2.771E-03  3.036E-07  3.072E+01  0.000E+00  6.283E+00
  2.771E-03  3.017E-03  1.867E-07  2.107E+01  0.000E+00  6.283E+00
  3.017E-03  3.285E-03  3.887E-07  3.769E+01  0.000E+00  6.283E+00
  3.285E-03  3.577E-03  2.890E-07  1.871E+01  0.000E+00  6.283E+00
  3.577E-03  3.895E-03  1.710E-07  2.684E+01  0.000E+00  6.283E+00
  3.895E-03  4.242E-03  1.485E-07  2.957E+01  0.000E+00  6.283E+00
  4.242E-03  4.619E-03  6.001E-08  2.949E+01  0.000E+00  6.283E+00
  4.619E-03  5.030E-03  6.687E-08  6.458E+01  0.000E+00  6.283E+00
  5.030E-03  5.477E-03  4.709E-08  4.434E+01  0.000E+00  6.283E+00
  5.477E-03  5.964E-03  1.496E-08  6.485E+01  0.000E+00  6.283E+00
  5.964E-03  6.494E-03  6.992E-08  4.800E+01  0.000E+00  6.283E+00
  6.494E-03  7.071E-03  0.000E+00  0.000E+00  0.000E+00  6.283E+00
  7.071E-03  7.700E-03  2.489E-08  5.975E+01  0.000E+00  6.283E+00
  7.700E-03  8.384E-03  5.622E-09  9.900E+01  0.000E+00  6.283E+00
  8.384E-03  9.130E-03  1.116E-08  9.900E+01  0.000E+00  6.283E+00
  9.130E-03  9.941E-03  0.000E+00  0.000E+00  0.000E+00  6.283E+00
  9.941E-03  1.083E-02  4.305E-09  9.900E+01  0.000E+00  6.283E+00
  1.083E-02  1.179E-02  0.000E+00  0.000E+00  0.000E+00  6.283E+00
  1.179E-02  1.284E-02  0.000E+00  0.000E+00  0.000E+00  6.283E+00
  1.284E-02  1.398E-02  4.409E-09  9.900E+01  0.000E+00  6.283E+00
  1.398E-02  1.522E-02  1.538E-09  9.900E+01  0.000E+00  6.283E+00
  1.522E-02  1.657E-02  1.966E-09  9.900E+01  0.000E+00  6.283E+00
  1.657E-02  1.805E-02  0.000E+00  0.000E+00  0.000E+00  6.283E+00
  1.805E-02  1.965E-02  2.122E-09  9.900E+01  0.000E+00  6.283E+00
  1.965E-02  2.140E-02  4.010E-09  9.900E+01  0.000E+00  6.283E+00
  2.140E-02  2.330E-02  8.897E-10  9.900E+01  0.000E+00  6.283E+00
  2.330E-02  2.537E-02  0.000E+00  0.000E+00  0.000E+00  6.283E+00
  2.537E-02  2.763E-02  7.720E-10  9.900E+01  0.000E+00  6.283E+00
  2.763E-02  3.008E-02  6.414E-09  8.516E+01  0.000E+00  6.283E+00
  3.008E-02  3.276E-02  2.656E-09  9.900E+01  0.000E+00  6.283E+00
  3.276E-02  3.567E-02  1.647E-09  9.900E+01  0.000E+00  6.283E+00
  3.567E-02  3.884E-02  0.000E+00  0.000E+00  0.000E+00  6.283E+00
  3.884E-02  4.229E-02  0.000E+00  0.000E+00  0.000E+00  6.283E+00
  4.229E-02  4.605E-02  0.000E+00  0.000E+00  0.000E+00  6.283E+00
  4.605E-02  5.015E-02  4.535E-10  9.900E+01  0.000E+00  6.283E+00
  5.015E-02  5.461E-02  0.000E+00  0.000E+00  0.000E+00  6.283E+00
  5.461E-02  5.946E-02  4.799E-10  9.900E+01  0.000E+00  6.283E+00
  5.946E-02  6.475E-02  2.106E-09  9.900E+01  0.000E+00  6.283E+00
  6.475E-02  7.050E-02  0.000E+00  0.000E+00  0.000E+00  6.283E+00
  7.050E-02  7.677E-02  8.104E-10  9.900E+01  0.000E+00  6.283E+00
  7.677E-02  8.360E-02  9.090E-10  9.900E+01  0.000E+00  6.283E+00
  8.360E-02  9.103E-02  0.000E+00  0.000E+00  0.000E+00  6.283E+00
  9.103E-02  9.912E-02  0.000E+00  0.000E+00  0.000E+00  6.283E+00
  9.912E-02  1.079E-01  0.000E+00  0.000E+00  0.000E+00  6.283E+00
  1.079E-01  1.175E-01  0.000E+00  0.000E+00  0.000E+00  6.283E+00
  1.175E-01  1.280E-01  0.000E+00  0.000E+00  0.000E+00  6.283E+00
  1.280E-01  1.394E-01  0.000E+00  0.000E+00  0.000E+00  6.283E+00
  1.394E-01  1.517E-01  0.000E+00  0.000E+00  0.000E+00  6.283E+00
  1.517E-01  1.652E-01  0.000E+00  0.000E+00  0.000E+00  6.283E+00
  1.652E-01  1.799E-01  0.000E+00  0.000E+00  0.000E+00  6.283E+00
  1.799E-01  1.959E-01  0.000E+00  0.000E+00  0.000E+00  6.283E+00
  1.959E-01  2.133E-01  0.000E+00  0.000E+00  0.000E+00  6.283E+00
  2.133E-01  2.323E-01  0.000E+00  0.000E+00  0.000E+00  6.283E+00
  2.323E-01  2.530E-01  0.000E+00  0.000E+00  0.000E+00  6.283E+00
  2.530E-01  2.754E-01  0.000E+00  0.000E+00  0.000E+00  6.283E+00
  2.754E-01  2.999E-01  0.000E+00  0.000E+00  0.000E+00  6.283E+00
  2.999E-01  3.266E-01  0.000E+00  0.000E+00  0.000E+00  6.283E+00
  3.266E-01  3.556E-01  0.000E+00  0.000E+00  0.000E+00  6.283E+00
  3.556E-01  3.873E-01  0.000E+00  0.000E+00  0.000E+00  6.283E+00
  3.873E-01  4.217E-01  0.000E+00  0.000E+00  0.000E+00  6.283E+00
  4.217E-01  4.592E-01  0.000E+00  0.000E+00  0.000E+00  6.283E+00
  4.592E-01  5.000E-01  0.000E+00  0.000E+00  0.000E+00  6.283E+00
  5.000E-01  5.000E-01  0.000E+00  0.000E+00  0.000E+00  6.283E+00

  1.000E-04  1.000E-04  0.000E+00  0.000E+00  6.283E+00  6.283E+00
  1.089E-04  1.089E-04  0.000E+00  0.000E+00  6.283E+00  6.283E+00
  1.186E-04  1.186E-04  0.000E+00  0.000E+00  6.283E+00  6.283E+00
  1.291E-04  1.291E-04  0.000E+00  0.000E+00  6.283E+00  6.283E+00
  1.406E-04  1.406E-04  0.000E+00  0.000E+00  6.283E+00  6.283E+00
  1.531E-04  1.531E-04  0.000E+00  0.000E+00  6.283E+00  6.283E+00
  1.667E-04  1.667E-04  0.000E+00  0.000E+00  6.283E+00  6.283E+00
  1.815E-04  1.815E-04  0.000E+00  0.000E+00  6.283E+00  6.283E+00
  1.977E-04  1.977E-04  0.000E+00  0.000E+00  6.283E+00  6.283E+00
  2.152E-04  2.152E-04  0.000E+00  0.000E+00  6.283E+00  6.283E+00
  2.344E-04  2.344E-04  0.000E+00  0.000E+00  6.283E+00  6.283E+00
  2.552E-04  2.552E-04  0.000E+00  0.000E+00  6.283E+00  6.283E+00
  2.779E-04  2.779E-04  0.000E+00  0.000E+00  6.283E+00  6.283E+00
  3.026E-04  3.026E-04  0.000E+00  0.000E+00  6.283E+00  6.283E+00
  3.295E-04  3.295E-04  0.000E+00  0.000E+00  6.283E+00  6.283E+00
  3.588E-04  3.588E-04  0.000E+00  0.000E+00  6.283E+00  6.283E+00
  3.907E-04  3.907E-04  0.000E+00  0.000E+00  6.283E+00  6.283E+00
  4.254E-04  4.254E-04  0.000E+00  0.000E+00  6.283E+00  6.283E+00
  4.632E-04  4.632E-04  0.000E+00  0.000E+00  6.283E+00  6.283E+00
  5.044E-04  5.044E-04  0.000E+00  0.000E+00  6.283E+00  6.283E+00
  5.493E-04  5.493E-04  0.000E+00  0.000E+00  6.283E+00  6.283E+00
  5.981E-04  5.981E-04  0.000E+00  0.000E+00  6.283E+00  6.283E+00
  6.513E-04  6.513E-04  0.000E+00  0.000E+00  6.283E+00  6.283E+00
  7.092E-04  7.092E-04  0.000E+00  0.000E+00  6.283E+00  6.283E+00
  7.722E-04  7.722E-04  0.000E+00  0.000E+00  6.283E+00  6.283E+00
  8.409E-04  8.409E-04  0.000E+00  0.000E+00  6.283E+00  6.283E+00
  9.157E-04  9.157E-04  0.000E+00  0.000E+00  6.283E+00  6.283E+00
  9.971E-04  9.971E-04  0.000E+00  0.000E+00  6.283E+00  6.283E+00
  1.086E-03  1.086E-03  0.000E+00  0.000E+00  6.283E+00  6.283E+00
  1.182E-03  1.182E-03  0.000E+00  0.000E+00  6.283E+00  6.283E+00
  1.287E-03  1.287E-03  0.000E+00  0.000E+00  6.283E+00  6.283E+00
  1.402E-03  1.402E-03  0.000E+00  0.000E+00  6.283E+00  6.283E+00
  1.526E-03  1.526E-03  0.000E+00  0.000E+00  6.283E+00  6.283E+00
  1.662E-03  1.662E-03  0.000E+00  0.000E+00  6.283E+00  6.283E+00
  1.810E-03  1.810E-03  0.000E+00  0.000E+00  6.283E+00  6.283E+00
  1.971E-03  1.971E-03  0.000E+00  0.000E+00  6.283E+00  6.283E+00
  2.146E-03  2.146E-03  0.000E+00  0.000E+00  6.283E+00  6.283E+00
  2.337E-03  2.337E-03  0.000E+00  0.000E+00  6.283E+00  6.283E+00
  2.545E-03  2.545E-03  0.000E+00  0.000E+00  6.283E+00  6.283E+00
  2.771E-03  2.771E-03  0.000E+00  0.000E+00  6.283E+00  6.283E+00
  3.017E-03  3.017E-03  0.000E+00  0.000E+00  6.283E+00  6.283E+00
  3.285E-03  3.285E-03  0.000E+00  0.000E+00  6.283E+00  6.283E+00
  3.577E-03  3.577E-03  0.000E+00  0.000E+00  6.283E+00  6.283E+00
  3.895E-03  3.895E-03  0.000E+00  0.000E+00  6.283E+00  6.283E+00
  4.242E-03  4.242E-03  0.000E+00  0.000E+00  6.283E+00  6.283E+00
  4.619E-03  4.619E-03  0.000E+00  0.000E+00  6.283E+00  6.283E+00
  5.030E-03  5.030E-03  0.000E+00  0.000E+00  6.283E+00  6.283E+00
  5.477E-03  5.477E-03  0.000E+00  0.000E+00  6.283E+00  6.283E+00
  5.964E-03  5.964E-03  0.000E+00  0.000E+00  6.283E+00  6.283E+00
  6.494E-03  6.494E-03  0.000E+00  0.000E+00  6.283E+00  6.283E+00
  7.071E-03  7.071E-03  0.000E+00  0.000E+00  6.283E+00  6.283E+00
  7.700E-03  7.700E-03  0.000E+00  0.000E+00  6.283E+00  6.283E+00
  8.384E-03  8.384E-03  0.000E+00  0.000E+00  6.283E+00  6.283E+00
  9.130E-03  9.130E-03  0.000E+00  0.000E+00  6.283E+00  6.283E+00
  9.941E-03  9.941E-03  0.000E+00  0.000E+00  6.283E+00  6.283E+00
  1.083E-02  1.083E-02  0.000E+00  0.000E+00  6.283E+00  6.283E+00
  1.179E-02  1.179E-02  0.000E+00  0.000E+00  6.283E+00  6.283E+00
  1.284E-02  1.284E-02  0.000E+00  0.000E+00  6.283E+00  6.283E+00
  1.398E-02  1.398E-02  0.000E+00  0.000E+00  6.283E+00  6.283E+00
  1.522E-02  1.522E-02  0.000E+00  0.000E+00  6.283E+00  6.283E+00
  1.657E-02  1.657E-02  0.000E+00  0.000E+00  6.283E+00  6.283E+00
  1.805E-02  1.805E-02  0.000E+00  0.000E+00  6.283E+00  6.283E+00
  1.965E-02  1.965E-02  0.000E+00  0.000E+00  6.283E+00  6.283E+00
  2.140E-02  2.140E-02  0.000E+00  0.000E+00  6.283E+00  6.283E+00
  2.330E-02  2.330E-02  0.000E+00  0.000E+00  6.283E+00  6.283E+00
  2.537E-02  2.537E-02  0.000E+00  0.000E+00  6.283E+00  6.283E+00
  2.763E-02  2.763E-02  0.000E+00  0.000E+00  6.283E+00  6.283E+00
  3.008E-02  3.008E-02  0.000E+00  0.000E+00  6.283E+00  6.283E+00
  3.276E-02  3.276E-02  0.000E+00  0.000E+00  6.283E+00  6.283E+00
  3.567E-02  3.567E-02  0.000E+00  0.000E+00  6.283E+00  6.283E+00
  3.884E-02  3.884E-02  0.000E+00  0.000E+00  6.283E+00  6.283E+00
  4.229E-02  4.229E-02  0.000E+00  0.000E+00  6.283E+00  6.283E+00
  4.605E-02  4.605E-02  0.000E+00  0.000E+00  6.283E+00  6.283E+00
  5.015E-02  5.015E-02  0.000E+00  0.000E+00  6.283E+00  6.283E+00
  5.461E-02  5.461E-02  0.000E+00  0.000E+00  6.283E+00  6.283E+00
  5.946E-02  5.946E-02  0.000E+00  0.000E+00  6.283E+00  6.283E+00
  6.475E-02  6.475E-02  0.000E+00  0.000E+00  6.283E+00  6.283E+00
  7.050E-02  7.050E-02  0.000E+00  0.000E+00  6.283E+00  6.283E+00
  7.677E-02  7.677E-02  0.000E+00  0.000E+00  6.283E+00  6.283E+00
  8.360E-02  8.360E-02  0.000E+00  0.000E+00  6.283E+00  6.283E+00
  9.103E-02  9.103E-02  0.000E+00  0.000E+00  6.283E+00  6.283E+00
  9.912E-02  9.912E-02  0.000E+00  0.000E+00  6.283E+00  6.283E+00
  1.079E-01  1.079E-01  0.000E+00  0.000E+00  6.283E+00  6.283E+00
  1.175E-01  1.175E-01  0.000E+00  0.000E+00  6.283E+00  6.283E+00
  1.280E-01  1.280E-01  0.000E+00  0.000E+00  6.283E+00  6.283E+00
  1.394E-01  1.394E-01  0.000E+00  0.000E+00  6.283E+00  6.283E+00
  1.517E-01  1.517E-01  0.000E+00  0.000E+00  6.283E+00  6.283E+00
  1.652E-01  1.652E-01  0.000E+00  0.000E+00  6.283E+00  6.283E+00
  1.799E-01  1.799E-01  0.000E+00  0.000E+00  6.283E+00  6.283E+00
  1.959E-01  1.959E-01  0.000E+00  0.000E+00  6.283E+00  6.283E+00
  2.133E-01  2.133E-01  0.000E+00  0.000E+00  6.283E+00  6.283E+00
  2.323E-01  2.323E-01  0.000E+00  0.000E+00  6.283E+00  6.283E+00
  2.530E-01  2.530E-01  0.000E+00  0.000E+00  6.283E+00  6.283E+00
  2.754E-01  2.754E-01  0.000E+00  0.000E+00  6.283E+00  6.283E+00
  2.999E-01  2.999E-01  0.000E+00  0.000E+00  6.283E+00  6.283E+00
  3.266E-01  3.266E-01  0.000E+00  0.000E+00  6.283E+00  6.283E+00
  3.556E-01  3.556E-01  0.000E+00  0.000E+00  6.283E+00  6.283E+00
  3.873E-01  3.873E-01  0.000E+00  0.000E+00  6.283E+00  6.283E+00
  4.217E-01  4.217E-01  0.000E+00  0.000E+00  6.283E+00  6.283E+00
  4.592E-01  4.592E-01  0.000E+00  0.000E+00  6.283E+00  6.283E+00
  5.000E-01  5.000E-01  0.000E+00  0.000E+00  6.283E+00  6.283E+00
