 # Detector n:            1   BdxElec   (integrated over solid angle)
 # N. of energy intervals         100
  1.000E-04  1.089E-04  5.254E-04  9.012E+00
  1.089E-04  1.186E-04  4.451E-04  7.637E+00
  1.186E-04  1.291E-04  3.939E-04  6.640E+00
  1.291E-04  1.406E-04  3.155E-04  5.367E+00
  1.406E-04  1.531E-04  3.454E-04  8.373E+00
  1.531E-04  1.667E-04  2.690E-04  3.835E+00
  1.667E-04  1.815E-04  2.184E-04  9.243E+00
  1.815E-04  1.977E-04  1.645E-04  6.943E+00
  1.977E-04  2.152E-04  1.432E-04  7.636E+00
  2.152E-04  2.344E-04  1.227E-04  5.398E+00
  2.344E-04  2.552E-04  8.420E-05  1.323E+01
  2.552E-04  2.779E-04  4.445E-05  1.315E+01
  2.779E-04  3.026E-04  3.124E-05  1.606E+01
  3.026E-04  3.295E-04  2.996E-05  1.590E+01
  3.295E-04  3.588E-04  1.642E-05  2.396E+01
  3.588E-04  3.907E-04  7.818E-06  1.980E+01
  3.907E-04  4.254E-04  5.397E-06  4.375E+01
  4.254E-04  4.632E-04  3.706E-06  5.096E+01
  4.632E-04  5.044E-04  3.878E-06  5.346E+01
  5.044E-04  5.493E-04  6.648E-06  3.695E+01
  5.493E-04  5.981E-04  3.743E-06  3.088E+01
  5.981E-04  6.513E-04  5.483E-06  2.877E+01
  6.513E-04  7.092E-04  5.130E-06  3.085E+01
  7.092E-04  7.722E-04  3.593E-06  1.629E+01
  7.722E-04  8.409E-04  3.160E-06  3.335E+00
  8.409E-04  9.157E-04  5.538E-06  2.819E+01
  9.157E-04  9.971E-04  2.390E-06  3.588E+01
  9.971E-04  1.086E-03  3.696E-06  2.786E+01
  1.086E-03  1.182E-03  2.513E-06  2.810E+01
  1.182E-03  1.287E-03  1.664E-06  3.311E+01
  1.287E-03  1.402E-03  4.213E-06  3.210E+01
  1.402E-03  1.526E-03  2.872E-06  1.630E+01
  1.526E-03  1.662E-03  3.669E-06  2.735E+01
  1.662E-03  1.810E-03  1.886E-06  2.538E+01
  1.810E-03  1.971E-03  2.029E-06  2.006E+01
  1.971E-03  2.146E-03  1.511E-06  2.331E+01
  2.146E-03  2.337E-03  1.589E-06  3.395E+01
  2.337E-03  2.545E-03  2.671E-06  9.173E+00
  2.545E-03  2.771E-03  1.180E-06  3.669E+01
  2.771E-03  3.017E-03  1.483E-06  2.663E+01
  3.017E-03  3.285E-03  1.880E-06  2.104E+01
  3.285E-03  3.577E-03  1.143E-06  2.387E+01
  3.577E-03  3.895E-03  1.230E-06  1.604E+01
  3.895E-03  4.242E-03  9.504E-07  3.997E+01
  4.242E-03  4.619E-03  9.688E-07  6.167E+01
  4.619E-03  5.030E-03  5.268E-07  2.822E+01
  5.030E-03  5.477E-03  4.116E-07  2.698E+01
  5.477E-03  5.964E-03  3.017E-07  4.806E+01
  5.964E-03  6.494E-03  1.830E-07  9.900E+01
  6.494E-03  7.071E-03  1.283E-07  4.810E+01
  7.071E-03  7.700E-03  5.816E-08  9.900E+01
  7.700E-03  8.384E-03  6.235E-08  6.426E+01
  8.384E-03  9.130E-03  4.270E-08  9.900E+01
  9.130E-03  9.941E-03  1.269E-07  9.900E+01
  9.941E-03  1.083E-02  0.000E+00  0.000E+00
  1.083E-02  1.179E-02  2.249E-08  9.900E+01
  1.179E-02  1.284E-02  0.000E+00  0.000E+00
  1.284E-02  1.398E-02  0.000E+00  0.000E+00
  1.398E-02  1.522E-02  2.792E-08  9.900E+01
  1.522E-02  1.657E-02  7.888E-09  9.900E+01
  1.657E-02  1.805E-02  3.822E-08  6.179E+01
  1.805E-02  1.965E-02  0.000E+00  0.000E+00
  1.965E-02  2.140E-02  0.000E+00  0.000E+00
  2.140E-02  2.330E-02  1.097E-08  9.900E+01
  2.330E-02  2.537E-02  0.000E+00  0.000E+00
  2.537E-02  2.763E-02  2.473E-08  9.900E+01
  2.763E-02  3.008E-02  0.000E+00  0.000E+00
  3.008E-02  3.276E-02  0.000E+00  0.000E+00
  3.276E-02  3.567E-02  1.052E-08  9.900E+01
  3.567E-02  3.884E-02  0.000E+00  0.000E+00
  3.884E-02  4.229E-02  7.957E-09  9.900E+01
  4.229E-02  4.605E-02  2.830E-09  9.900E+01
  4.605E-02  5.015E-02  0.000E+00  0.000E+00
  5.015E-02  5.461E-02  0.000E+00  0.000E+00
  5.461E-02  5.946E-02  3.870E-08  9.900E+01
  5.946E-02  6.475E-02  1.300E-08  9.900E+01
  6.475E-02  7.050E-02  2.594E-09  9.900E+01
  7.050E-02  7.677E-02  4.124E-09  9.900E+01
  7.677E-02  8.360E-02  0.000E+00  0.000E+00
  8.360E-02  9.103E-02  0.000E+00  0.000E+00
  9.103E-02  9.912E-02  0.000E+00  0.000E+00
  9.912E-02  1.079E-01  0.000E+00  0.000E+00
  1.079E-01  1.175E-01  0.000E+00  0.000E+00
  1.175E-01  1.280E-01  0.000E+00  0.000E+00
  1.280E-01  1.394E-01  0.000E+00  0.000E+00
  1.394E-01  1.517E-01  0.000E+00  0.000E+00
  1.517E-01  1.652E-01  0.000E+00  0.000E+00
  1.652E-01  1.799E-01  0.000E+00  0.000E+00
  1.799E-01  1.959E-01  0.000E+00  0.000E+00
  1.959E-01  2.133E-01  0.000E+00  0.000E+00
  2.133E-01  2.323E-01  0.000E+00  0.000E+00
  2.323E-01  2.530E-01  0.000E+00  0.000E+00
  2.530E-01  2.754E-01  0.000E+00  0.000E+00
  2.754E-01  2.999E-01  0.000E+00  0.000E+00
  2.999E-01  3.266E-01  0.000E+00  0.000E+00
  3.266E-01  3.556E-01  0.000E+00  0.000E+00
  3.556E-01  3.873E-01  0.000E+00  0.000E+00
  3.873E-01  4.217E-01  0.000E+00  0.000E+00
  4.217E-01  4.592E-01  0.000E+00  0.000E+00
  4.592E-01  5.000E-01  0.000E+00  0.000E+00


 # double differential distributions
 # number of solid angle intervals           1
 # Block n:            1     0.00000000      :   6.28318548    
  1.000E-04  1.089E-04  8.361E-05  9.012E+00  0.000E+00  6.283E+00
  1.089E-04  1.186E-04  7.084E-05  7.637E+00  0.000E+00  6.283E+00
  1.186E-04  1.291E-04  6.269E-05  6.640E+00  0.000E+00  6.283E+00
  1.291E-04  1.406E-04  5.021E-05  5.367E+00  0.000E+00  6.283E+00
  1.406E-04  1.531E-04  5.497E-05  8.373E+00  0.000E+00  6.283E+00
  1.531E-04  1.667E-04  4.281E-05  3.835E+00  0.000E+00  6.283E+00
  1.667E-04  1.815E-04  3.476E-05  9.243E+00  0.000E+00  6.283E+00
  1.815E-04  1.977E-04  2.618E-05  6.943E+00  0.000E+00  6.283E+00
  1.977E-04  2.152E-04  2.280E-05  7.636E+00  0.000E+00  6.283E+00
  2.152E-04  2.344E-04  1.953E-05  5.398E+00  0.000E+00  6.283E+00
  2.344E-04  2.552E-04  1.340E-05  1.323E+01  0.000E+00  6.283E+00
  2.552E-04  2.779E-04  7.074E-06  1.315E+01  0.000E+00  6.283E+00
  2.779E-04  3.026E-04  4.972E-06  1.606E+01  0.000E+00  6.283E+00
  3.026E-04  3.295E-04  4.768E-06  1.590E+01  0.000E+00  6.283E+00
  3.295E-04  3.588E-04  2.613E-06  2.396E+01  0.000E+00  6.283E+00
  3.588E-04  3.907E-04  1.244E-06  1.980E+01  0.000E+00  6.283E+00
  3.907E-04  4.254E-04  8.589E-07  4.375E+01  0.000E+00  6.283E+00
  4.254E-04  4.632E-04  5.899E-07  5.096E+01  0.000E+00  6.283E+00
  4.632E-04  5.044E-04  6.172E-07  5.346E+01  0.000E+00  6.283E+00
  5.044E-04  5.493E-04  1.058E-06  3.695E+01  0.000E+00  6.283E+00
  5.493E-04  5.981E-04  5.957E-07  3.088E+01  0.000E+00  6.283E+00
  5.981E-04  6.513E-04  8.727E-07  2.877E+01  0.000E+00  6.283E+00
  6.513E-04  7.092E-04  8.165E-07  3.085E+01  0.000E+00  6.283E+00
  7.092E-04  7.722E-04  5.718E-07  1.629E+01  0.000E+00  6.283E+00
  7.722E-04  8.409E-04  5.029E-07  3.335E+00  0.000E+00  6.283E+00
  8.409E-04  9.157E-04  8.814E-07  2.819E+01  0.000E+00  6.283E+00
  9.157E-04  9.971E-04  3.804E-07  3.588E+01  0.000E+00  6.283E+00
  9.971E-04  1.086E-03  5.883E-07  2.786E+01  0.000E+00  6.283E+00
  1.086E-03  1.182E-03  3.999E-07  2.810E+01  0.000E+00  6.283E+00
  1.182E-03  1.287E-03  2.649E-07  3.311E+01  0.000E+00  6.283E+00
  1.287E-03  1.402E-03  6.706E-07  3.210E+01  0.000E+00  6.283E+00
  1.402E-03  1.526E-03  4.571E-07  1.630E+01  0.000E+00  6.283E+00
  1.526E-03  1.662E-03  5.839E-07  2.735E+01  0.000E+00  6.283E+00
  1.662E-03  1.810E-03  3.002E-07  2.538E+01  0.000E+00  6.283E+00
  1.810E-03  1.971E-03  3.229E-07  2.006E+01  0.000E+00  6.283E+00
  1.971E-03  2.146E-03  2.404E-07  2.331E+01  0.000E+00  6.283E+00
  2.146E-03  2.337E-03  2.529E-07  3.395E+01  0.000E+00  6.283E+00
  2.337E-03  2.545E-03  4.251E-07  9.173E+00  0.000E+00  6.283E+00
  2.545E-03  2.771E-03  1.878E-07  3.669E+01  0.000E+00  6.283E+00
  2.771E-03  3.017E-03  2.360E-07  2.663E+01  0.000E+00  6.283E+00
  3.017E-03  3.285E-03  2.992E-07  2.104E+01  0.000E+00  6.283E+00
  3.285E-03  3.577E-03  1.819E-07  2.387E+01  0.000E+00  6.283E+00
  3.577E-03  3.895E-03  1.958E-07  1.604E+01  0.000E+00  6.283E+00
  3.895E-03  4.242E-03  1.513E-07  3.997E+01  0.000E+00  6.283E+00
  4.242E-03  4.619E-03  1.542E-07  6.167E+01  0.000E+00  6.283E+00
  4.619E-03  5.030E-03  8.384E-08  2.822E+01  0.000E+00  6.283E+00
  5.030E-03  5.477E-03  6.552E-08  2.698E+01  0.000E+00  6.283E+00
  5.477E-03  5.964E-03  4.802E-08  4.806E+01  0.000E+00  6.283E+00
  5.964E-03  6.494E-03  2.912E-08  9.900E+01  0.000E+00  6.283E+00
  6.494E-03  7.071E-03  2.043E-08  4.810E+01  0.000E+00  6.283E+00
  7.071E-03  7.700E-03  9.256E-09  9.900E+01  0.000E+00  6.283E+00
  7.700E-03  8.384E-03  9.923E-09  6.426E+01  0.000E+00  6.283E+00
  8.384E-03  9.130E-03  6.796E-09  9.900E+01  0.000E+00  6.283E+00
  9.130E-03  9.941E-03  2.020E-08  9.900E+01  0.000E+00  6.283E+00
  9.941E-03  1.083E-02  0.000E+00  0.000E+00  0.000E+00  6.283E+00
  1.083E-02  1.179E-02  3.579E-09  9.900E+01  0.000E+00  6.283E+00
  1.179E-02  1.284E-02  0.000E+00  0.000E+00  0.000E+00  6.283E+00
  1.284E-02  1.398E-02  0.000E+00  0.000E+00  0.000E+00  6.283E+00
  1.398E-02  1.522E-02  4.444E-09  9.900E+01  0.000E+00  6.283E+00
  1.522E-02  1.657E-02  1.255E-09  9.900E+01  0.000E+00  6.283E+00
  1.657E-02  1.805E-02  6.082E-09  6.179E+01  0.000E+00  6.283E+00
  1.805E-02  1.965E-02  0.000E+00  0.000E+00  0.000E+00  6.283E+00
  1.965E-02  2.140E-02  0.000E+00  0.000E+00  0.000E+00  6.283E+00
  2.140E-02  2.330E-02  1.745E-09  9.900E+01  0.000E+00  6.283E+00
  2.330E-02  2.537E-02  0.000E+00  0.000E+00  0.000E+00  6.283E+00
  2.537E-02  2.763E-02  3.936E-09  9.900E+01  0.000E+00  6.283E+00
  2.763E-02  3.008E-02  0.000E+00  0.000E+00  0.000E+00  6.283E+00
  3.008E-02  3.276E-02  0.000E+00  0.000E+00  0.000E+00  6.283E+00
  3.276E-02  3.567E-02  1.674E-09  9.900E+01  0.000E+00  6.283E+00
  3.567E-02  3.884E-02  0.000E+00  0.000E+00  0.000E+00  6.283E+00
  3.884E-02  4.229E-02  1.266E-09  9.900E+01  0.000E+00  6.283E+00
  4.229E-02  4.605E-02  4.504E-10  9.900E+01  0.000E+00  6.283E+00
  4.605E-02  5.015E-02  0.000E+00  0.000E+00  0.000E+00  6.283E+00
  5.015E-02  5.461E-02  0.000E+00  0.000E+00  0.000E+00  6.283E+00
  5.461E-02  5.946E-02  6.159E-09  9.900E+01  0.000E+00  6.283E+00
  5.946E-02  6.475E-02  2.069E-09  9.900E+01  0.000E+00  6.283E+00
  6.475E-02  7.050E-02  4.129E-10  9.900E+01  0.000E+00  6.283E+00
  7.050E-02  7.677E-02  6.564E-10  9.900E+01  0.000E+00  6.283E+00
  7.677E-02  8.360E-02  0.000E+00  0.000E+00  0.000E+00  6.283E+00
  8.360E-02  9.103E-02  0.000E+00  0.000E+00  0.000E+00  6.283E+00
  9.103E-02  9.912E-02  0.000E+00  0.000E+00  0.000E+00  6.283E+00
  9.912E-02  1.079E-01  0.000E+00  0.000E+00  0.000E+00  6.283E+00
  1.079E-01  1.175E-01  0.000E+00  0.000E+00  0.000E+00  6.283E+00
  1.175E-01  1.280E-01  0.000E+00  0.000E+00  0.000E+00  6.283E+00
  1.280E-01  1.394E-01  0.000E+00  0.000E+00  0.000E+00  6.283E+00
  1.394E-01  1.517E-01  0.000E+00  0.000E+00  0.000E+00  6.283E+00
  1.517E-01  1.652E-01  0.000E+00  0.000E+00  0.000E+00  6.283E+00
  1.652E-01  1.799E-01  0.000E+00  0.000E+00  0.000E+00  6.283E+00
  1.799E-01  1.959E-01  0.000E+00  0.000E+00  0.000E+00  6.283E+00
  1.959E-01  2.133E-01  0.000E+00  0.000E+00  0.000E+00  6.283E+00
  2.133E-01  2.323E-01  0.000E+00  0.000E+00  0.000E+00  6.283E+00
  2.323E-01  2.530E-01  0.000E+00  0.000E+00  0.000E+00  6.283E+00
  2.530E-01  2.754E-01  0.000E+00  0.000E+00  0.000E+00  6.283E+00
  2.754E-01  2.999E-01  0.000E+00  0.000E+00  0.000E+00  6.283E+00
  2.999E-01  3.266E-01  0.000E+00  0.000E+00  0.000E+00  6.283E+00
  3.266E-01  3.556E-01  0.000E+00  0.000E+00  0.000E+00  6.283E+00
  3.556E-01  3.873E-01  0.000E+00  0.000E+00  0.000E+00  6.283E+00
  3.873E-01  4.217E-01  0.000E+00  0.000E+00  0.000E+00  6.283E+00
  4.217E-01  4.592E-01  0.000E+00  0.000E+00  0.000E+00  6.283E+00
  4.592E-01  5.000E-01  0.000E+00  0.000E+00  0.000E+00  6.283E+00
  5.000E-01  5.000E-01  0.000E+00  0.000E+00  0.000E+00  6.283E+00

  1.000E-04  1.000E-04  0.000E+00  0.000E+00  6.283E+00  6.283E+00
  1.089E-04  1.089E-04  0.000E+00  0.000E+00  6.283E+00  6.283E+00
  1.186E-04  1.186E-04  0.000E+00  0.000E+00  6.283E+00  6.283E+00
  1.291E-04  1.291E-04  0.000E+00  0.000E+00  6.283E+00  6.283E+00
  1.406E-04  1.406E-04  0.000E+00  0.000E+00  6.283E+00  6.283E+00
  1.531E-04  1.531E-04  0.000E+00  0.000E+00  6.283E+00  6.283E+00
  1.667E-04  1.667E-04  0.000E+00  0.000E+00  6.283E+00  6.283E+00
  1.815E-04  1.815E-04  0.000E+00  0.000E+00  6.283E+00  6.283E+00
  1.977E-04  1.977E-04  0.000E+00  0.000E+00  6.283E+00  6.283E+00
  2.152E-04  2.152E-04  0.000E+00  0.000E+00  6.283E+00  6.283E+00
  2.344E-04  2.344E-04  0.000E+00  0.000E+00  6.283E+00  6.283E+00
  2.552E-04  2.552E-04  0.000E+00  0.000E+00  6.283E+00  6.283E+00
  2.779E-04  2.779E-04  0.000E+00  0.000E+00  6.283E+00  6.283E+00
  3.026E-04  3.026E-04  0.000E+00  0.000E+00  6.283E+00  6.283E+00
  3.295E-04  3.295E-04  0.000E+00  0.000E+00  6.283E+00  6.283E+00
  3.588E-04  3.588E-04  0.000E+00  0.000E+00  6.283E+00  6.283E+00
  3.907E-04  3.907E-04  0.000E+00  0.000E+00  6.283E+00  6.283E+00
  4.254E-04  4.254E-04  0.000E+00  0.000E+00  6.283E+00  6.283E+00
  4.632E-04  4.632E-04  0.000E+00  0.000E+00  6.283E+00  6.283E+00
  5.044E-04  5.044E-04  0.000E+00  0.000E+00  6.283E+00  6.283E+00
  5.493E-04  5.493E-04  0.000E+00  0.000E+00  6.283E+00  6.283E+00
  5.981E-04  5.981E-04  0.000E+00  0.000E+00  6.283E+00  6.283E+00
  6.513E-04  6.513E-04  0.000E+00  0.000E+00  6.283E+00  6.283E+00
  7.092E-04  7.092E-04  0.000E+00  0.000E+00  6.283E+00  6.283E+00
  7.722E-04  7.722E-04  0.000E+00  0.000E+00  6.283E+00  6.283E+00
  8.409E-04  8.409E-04  0.000E+00  0.000E+00  6.283E+00  6.283E+00
  9.157E-04  9.157E-04  0.000E+00  0.000E+00  6.283E+00  6.283E+00
  9.971E-04  9.971E-04  0.000E+00  0.000E+00  6.283E+00  6.283E+00
  1.086E-03  1.086E-03  0.000E+00  0.000E+00  6.283E+00  6.283E+00
  1.182E-03  1.182E-03  0.000E+00  0.000E+00  6.283E+00  6.283E+00
  1.287E-03  1.287E-03  0.000E+00  0.000E+00  6.283E+00  6.283E+00
  1.402E-03  1.402E-03  0.000E+00  0.000E+00  6.283E+00  6.283E+00
  1.526E-03  1.526E-03  0.000E+00  0.000E+00  6.283E+00  6.283E+00
  1.662E-03  1.662E-03  0.000E+00  0.000E+00  6.283E+00  6.283E+00
  1.810E-03  1.810E-03  0.000E+00  0.000E+00  6.283E+00  6.283E+00
  1.971E-03  1.971E-03  0.000E+00  0.000E+00  6.283E+00  6.283E+00
  2.146E-03  2.146E-03  0.000E+00  0.000E+00  6.283E+00  6.283E+00
  2.337E-03  2.337E-03  0.000E+00  0.000E+00  6.283E+00  6.283E+00
  2.545E-03  2.545E-03  0.000E+00  0.000E+00  6.283E+00  6.283E+00
  2.771E-03  2.771E-03  0.000E+00  0.000E+00  6.283E+00  6.283E+00
  3.017E-03  3.017E-03  0.000E+00  0.000E+00  6.283E+00  6.283E+00
  3.285E-03  3.285E-03  0.000E+00  0.000E+00  6.283E+00  6.283E+00
  3.577E-03  3.577E-03  0.000E+00  0.000E+00  6.283E+00  6.283E+00
  3.895E-03  3.895E-03  0.000E+00  0.000E+00  6.283E+00  6.283E+00
  4.242E-03  4.242E-03  0.000E+00  0.000E+00  6.283E+00  6.283E+00
  4.619E-03  4.619E-03  0.000E+00  0.000E+00  6.283E+00  6.283E+00
  5.030E-03  5.030E-03  0.000E+00  0.000E+00  6.283E+00  6.283E+00
  5.477E-03  5.477E-03  0.000E+00  0.000E+00  6.283E+00  6.283E+00
  5.964E-03  5.964E-03  0.000E+00  0.000E+00  6.283E+00  6.283E+00
  6.494E-03  6.494E-03  0.000E+00  0.000E+00  6.283E+00  6.283E+00
  7.071E-03  7.071E-03  0.000E+00  0.000E+00  6.283E+00  6.283E+00
  7.700E-03  7.700E-03  0.000E+00  0.000E+00  6.283E+00  6.283E+00
  8.384E-03  8.384E-03  0.000E+00  0.000E+00  6.283E+00  6.283E+00
  9.130E-03  9.130E-03  0.000E+00  0.000E+00  6.283E+00  6.283E+00
  9.941E-03  9.941E-03  0.000E+00  0.000E+00  6.283E+00  6.283E+00
  1.083E-02  1.083E-02  0.000E+00  0.000E+00  6.283E+00  6.283E+00
  1.179E-02  1.179E-02  0.000E+00  0.000E+00  6.283E+00  6.283E+00
  1.284E-02  1.284E-02  0.000E+00  0.000E+00  6.283E+00  6.283E+00
  1.398E-02  1.398E-02  0.000E+00  0.000E+00  6.283E+00  6.283E+00
  1.522E-02  1.522E-02  0.000E+00  0.000E+00  6.283E+00  6.283E+00
  1.657E-02  1.657E-02  0.000E+00  0.000E+00  6.283E+00  6.283E+00
  1.805E-02  1.805E-02  0.000E+00  0.000E+00  6.283E+00  6.283E+00
  1.965E-02  1.965E-02  0.000E+00  0.000E+00  6.283E+00  6.283E+00
  2.140E-02  2.140E-02  0.000E+00  0.000E+00  6.283E+00  6.283E+00
  2.330E-02  2.330E-02  0.000E+00  0.000E+00  6.283E+00  6.283E+00
  2.537E-02  2.537E-02  0.000E+00  0.000E+00  6.283E+00  6.283E+00
  2.763E-02  2.763E-02  0.000E+00  0.000E+00  6.283E+00  6.283E+00
  3.008E-02  3.008E-02  0.000E+00  0.000E+00  6.283E+00  6.283E+00
  3.276E-02  3.276E-02  0.000E+00  0.000E+00  6.283E+00  6.283E+00
  3.567E-02  3.567E-02  0.000E+00  0.000E+00  6.283E+00  6.283E+00
  3.884E-02  3.884E-02  0.000E+00  0.000E+00  6.283E+00  6.283E+00
  4.229E-02  4.229E-02  0.000E+00  0.000E+00  6.283E+00  6.283E+00
  4.605E-02  4.605E-02  0.000E+00  0.000E+00  6.283E+00  6.283E+00
  5.015E-02  5.015E-02  0.000E+00  0.000E+00  6.283E+00  6.283E+00
  5.461E-02  5.461E-02  0.000E+00  0.000E+00  6.283E+00  6.283E+00
  5.946E-02  5.946E-02  0.000E+00  0.000E+00  6.283E+00  6.283E+00
  6.475E-02  6.475E-02  0.000E+00  0.000E+00  6.283E+00  6.283E+00
  7.050E-02  7.050E-02  0.000E+00  0.000E+00  6.283E+00  6.283E+00
  7.677E-02  7.677E-02  0.000E+00  0.000E+00  6.283E+00  6.283E+00
  8.360E-02  8.360E-02  0.000E+00  0.000E+00  6.283E+00  6.283E+00
  9.103E-02  9.103E-02  0.000E+00  0.000E+00  6.283E+00  6.283E+00
  9.912E-02  9.912E-02  0.000E+00  0.000E+00  6.283E+00  6.283E+00
  1.079E-01  1.079E-01  0.000E+00  0.000E+00  6.283E+00  6.283E+00
  1.175E-01  1.175E-01  0.000E+00  0.000E+00  6.283E+00  6.283E+00
  1.280E-01  1.280E-01  0.000E+00  0.000E+00  6.283E+00  6.283E+00
  1.394E-01  1.394E-01  0.000E+00  0.000E+00  6.283E+00  6.283E+00
  1.517E-01  1.517E-01  0.000E+00  0.000E+00  6.283E+00  6.283E+00
  1.652E-01  1.652E-01  0.000E+00  0.000E+00  6.283E+00  6.283E+00
  1.799E-01  1.799E-01  0.000E+00  0.000E+00  6.283E+00  6.283E+00
  1.959E-01  1.959E-01  0.000E+00  0.000E+00  6.283E+00  6.283E+00
  2.133E-01  2.133E-01  0.000E+00  0.000E+00  6.283E+00  6.283E+00
  2.323E-01  2.323E-01  0.000E+00  0.000E+00  6.283E+00  6.283E+00
  2.530E-01  2.530E-01  0.000E+00  0.000E+00  6.283E+00  6.283E+00
  2.754E-01  2.754E-01  0.000E+00  0.000E+00  6.283E+00  6.283E+00
  2.999E-01  2.999E-01  0.000E+00  0.000E+00  6.283E+00  6.283E+00
  3.266E-01  3.266E-01  0.000E+00  0.000E+00  6.283E+00  6.283E+00
  3.556E-01  3.556E-01  0.000E+00  0.000E+00  6.283E+00  6.283E+00
  3.873E-01  3.873E-01  0.000E+00  0.000E+00  6.283E+00  6.283E+00
  4.217E-01  4.217E-01  0.000E+00  0.000E+00  6.283E+00  6.283E+00
  4.592E-01  4.592E-01  0.000E+00  0.000E+00  6.283E+00  6.283E+00
  5.000E-01  5.000E-01  0.000E+00  0.000E+00  6.283E+00  6.283E+00
