 # Detector n:            1   BdxNeut   (integrated over solid angle)
 # N. of energy intervals         100
  1.000E-09  1.222E-09  2.397E+01  1.034E+01
  1.222E-09  1.493E-09  2.772E+01  6.142E+00
  1.493E-09  1.824E-09  1.741E+01  4.983E+00
  1.824E-09  2.228E-09  1.533E+01  6.107E+00
  2.228E-09  2.722E-09  1.180E+01  8.096E+00
  2.722E-09  3.326E-09  1.093E+01  6.788E+00
  3.326E-09  4.064E-09  9.851E+00  3.283E+00
  4.064E-09  4.965E-09  7.120E+00  9.919E+00
  4.965E-09  6.066E-09  6.026E+00  5.139E+00
  6.066E-09  7.411E-09  5.051E+00  7.502E+00
  7.411E-09  9.055E-09  3.984E+00  6.979E+00
  9.055E-09  1.106E-08  3.674E+00  1.106E+01
  1.106E-08  1.352E-08  2.697E+00  4.344E+00
  1.352E-08  1.651E-08  2.691E+00  6.297E+00
  1.651E-08  2.018E-08  1.894E+00  9.219E+00
  2.018E-08  2.465E-08  1.496E+00  4.056E+00
  2.465E-08  3.012E-08  1.454E+00  1.139E+01
  3.012E-08  3.680E-08  1.059E+00  6.133E+00
  3.680E-08  4.496E-08  9.156E-01  3.399E+00
  4.496E-08  5.493E-08  7.224E-01  4.110E+00
  5.493E-08  6.711E-08  6.002E-01  4.435E+00
  6.711E-08  8.199E-08  5.157E-01  4.539E+00
  8.199E-08  1.002E-07  3.649E-01  8.498E+00
  1.002E-07  1.224E-07  3.383E-01  1.218E+00
  1.224E-07  1.495E-07  2.759E-01  5.862E+00
  1.495E-07  1.827E-07  2.167E-01  3.476E+00
  1.827E-07  2.232E-07  1.622E-01  1.021E+01
  2.232E-07  2.727E-07  1.521E-01  7.757E+00
  2.727E-07  3.332E-07  1.164E-01  8.160E+00
  3.332E-07  4.071E-07  9.138E-02  7.165E+00
  4.071E-07  4.974E-07  7.129E-02  5.168E+00
  4.974E-07  6.077E-07  6.509E-02  6.935E+00
  6.077E-07  7.424E-07  5.015E-02  4.931E+00
  7.424E-07  9.071E-07  4.377E-02  6.211E+00
  9.071E-07  1.108E-06  3.614E-02  6.842E+00
  1.108E-06  1.354E-06  3.709E-02  8.040E+00
  1.354E-06  1.654E-06  2.643E-02  3.284E+00
  1.654E-06  2.021E-06  1.942E-02  3.781E+00
  2.021E-06  2.469E-06  1.589E-02  4.087E+00
  2.469E-06  3.017E-06  1.381E-02  5.466E+00
  3.017E-06  3.686E-06  1.177E-02  2.466E+00
  3.686E-06  4.504E-06  1.129E-02  1.414E+01
  4.504E-06  5.502E-06  7.945E-03  4.455E+00
  5.502E-06  6.723E-06  6.678E-03  1.806E+00
  6.723E-06  8.214E-06  5.373E-03  7.618E+00
  8.214E-06  1.004E-05  4.778E-03  9.332E+00
  1.004E-05  1.226E-05  3.907E-03  6.559E+00
  1.226E-05  1.498E-05  3.242E-03  1.641E+00
  1.498E-05  1.830E-05  2.525E-03  3.323E+00
  1.830E-05  2.236E-05  2.187E-03  2.130E+00
  2.236E-05  2.732E-05  1.950E-03  3.640E+00
  2.732E-05  3.338E-05  1.500E-03  3.351E+00
  3.338E-05  4.078E-05  1.484E-03  7.693E+00
  4.078E-05  4.982E-05  1.196E-03  6.724E+00
  4.982E-05  6.087E-05  1.005E-03  6.084E+00
  6.087E-05  7.437E-05  8.820E-04  5.202E+00
  7.437E-05  9.087E-05  7.817E-04  3.104E+00
  9.087E-05  1.110E-04  7.246E-04  3.680E+00
  1.110E-04  1.356E-04  6.380E-04  3.564E+00
  1.356E-04  1.657E-04  5.712E-04  3.653E+00
  1.657E-04  2.025E-04  5.280E-04  2.125E+00
  2.025E-04  2.474E-04  4.806E-04  3.980E+00
  2.474E-04  3.022E-04  4.371E-04  2.575E+00
  3.022E-04  3.693E-04  3.957E-04  9.830E-01
  3.693E-04  4.512E-04  3.745E-04  2.691E+00
  4.512E-04  5.512E-04  3.498E-04  1.945E+00
  5.512E-04  6.735E-04  3.156E-04  1.443E+00
  6.735E-04  8.228E-04  2.959E-04  9.513E-01
  8.228E-04  1.005E-03  4.932E-04  7.803E-01
  1.005E-03  1.228E-03  0.000E+00  0.000E+00
  1.228E-03  1.501E-03  0.000E+00  0.000E+00
  1.501E-03  1.833E-03  0.000E+00  0.000E+00
  1.833E-03  2.240E-03  0.000E+00  0.000E+00
  2.240E-03  2.737E-03  0.000E+00  0.000E+00
  2.737E-03  3.344E-03  0.000E+00  0.000E+00
  3.344E-03  4.085E-03  0.000E+00  0.000E+00
  4.085E-03  4.991E-03  0.000E+00  0.000E+00
  4.991E-03  6.098E-03  0.000E+00  0.000E+00
  6.098E-03  7.450E-03  0.000E+00  0.000E+00
  7.450E-03  9.103E-03  0.000E+00  0.000E+00
  9.103E-03  1.112E-02  0.000E+00  0.000E+00
  1.112E-02  1.359E-02  0.000E+00  0.000E+00
  1.359E-02  1.660E-02  0.000E+00  0.000E+00
  1.660E-02  2.028E-02  0.000E+00  0.000E+00
  2.028E-02  2.478E-02  0.000E+00  0.000E+00
  2.478E-02  3.028E-02  0.000E+00  0.000E+00
  3.028E-02  3.699E-02  0.000E+00  0.000E+00
  3.699E-02  4.520E-02  0.000E+00  0.000E+00
  4.520E-02  5.522E-02  0.000E+00  0.000E+00
  5.522E-02  6.746E-02  0.000E+00  0.000E+00
  6.746E-02  8.243E-02  0.000E+00  0.000E+00
  8.243E-02  1.007E-01  0.000E+00  0.000E+00
  1.007E-01  1.230E-01  0.000E+00  0.000E+00
  1.230E-01  1.503E-01  0.000E+00  0.000E+00
  1.503E-01  1.837E-01  0.000E+00  0.000E+00
  1.837E-01  2.244E-01  0.000E+00  0.000E+00
  2.244E-01  2.742E-01  0.000E+00  0.000E+00
  2.742E-01  3.350E-01  0.000E+00  0.000E+00
  3.350E-01  4.092E-01  0.000E+00  0.000E+00
  4.092E-01  5.000E-01  0.000E+00  0.000E+00


 # double differential distributions
 # number of solid angle intervals           1
 # Block n:            1     0.00000000      :   6.28318548    
  1.000E-09  1.222E-09  3.815E+00  1.034E+01  0.000E+00  6.283E+00
  1.222E-09  1.493E-09  4.411E+00  6.142E+00  0.000E+00  6.283E+00
  1.493E-09  1.824E-09  2.771E+00  4.983E+00  0.000E+00  6.283E+00
  1.824E-09  2.228E-09  2.440E+00  6.107E+00  0.000E+00  6.283E+00
  2.228E-09  2.722E-09  1.878E+00  8.096E+00  0.000E+00  6.283E+00
  2.722E-09  3.326E-09  1.739E+00  6.788E+00  0.000E+00  6.283E+00
  3.326E-09  4.064E-09  1.568E+00  3.283E+00  0.000E+00  6.283E+00
  4.064E-09  4.965E-09  1.133E+00  9.919E+00  0.000E+00  6.283E+00
  4.965E-09  6.066E-09  9.591E-01  5.139E+00  0.000E+00  6.283E+00
  6.066E-09  7.411E-09  8.039E-01  7.502E+00  0.000E+00  6.283E+00
  7.411E-09  9.055E-09  6.341E-01  6.979E+00  0.000E+00  6.283E+00
  9.055E-09  1.106E-08  5.848E-01  1.106E+01  0.000E+00  6.283E+00
  1.106E-08  1.352E-08  4.293E-01  4.344E+00  0.000E+00  6.283E+00
  1.352E-08  1.651E-08  4.283E-01  6.297E+00  0.000E+00  6.283E+00
  1.651E-08  2.018E-08  3.014E-01  9.219E+00  0.000E+00  6.283E+00
  2.018E-08  2.465E-08  2.381E-01  4.056E+00  0.000E+00  6.283E+00
  2.465E-08  3.012E-08  2.314E-01  1.139E+01  0.000E+00  6.283E+00
  3.012E-08  3.680E-08  1.685E-01  6.133E+00  0.000E+00  6.283E+00
  3.680E-08  4.496E-08  1.457E-01  3.399E+00  0.000E+00  6.283E+00
  4.496E-08  5.493E-08  1.150E-01  4.110E+00  0.000E+00  6.283E+00
  5.493E-08  6.711E-08  9.552E-02  4.435E+00  0.000E+00  6.283E+00
  6.711E-08  8.199E-08  8.208E-02  4.539E+00  0.000E+00  6.283E+00
  8.199E-08  1.002E-07  5.807E-02  8.498E+00  0.000E+00  6.283E+00
  1.002E-07  1.224E-07  5.385E-02  1.218E+00  0.000E+00  6.283E+00
  1.224E-07  1.495E-07  4.392E-02  5.862E+00  0.000E+00  6.283E+00
  1.495E-07  1.827E-07  3.450E-02  3.476E+00  0.000E+00  6.283E+00
  1.827E-07  2.232E-07  2.582E-02  1.021E+01  0.000E+00  6.283E+00
  2.232E-07  2.727E-07  2.420E-02  7.757E+00  0.000E+00  6.283E+00
  2.727E-07  3.332E-07  1.853E-02  8.160E+00  0.000E+00  6.283E+00
  3.332E-07  4.071E-07  1.454E-02  7.165E+00  0.000E+00  6.283E+00
  4.071E-07  4.974E-07  1.135E-02  5.168E+00  0.000E+00  6.283E+00
  4.974E-07  6.077E-07  1.036E-02  6.935E+00  0.000E+00  6.283E+00
  6.077E-07  7.424E-07  7.981E-03  4.931E+00  0.000E+00  6.283E+00
  7.424E-07  9.071E-07  6.967E-03  6.211E+00  0.000E+00  6.283E+00
  9.071E-07  1.108E-06  5.752E-03  6.842E+00  0.000E+00  6.283E+00
  1.108E-06  1.354E-06  5.903E-03  8.040E+00  0.000E+00  6.283E+00
  1.354E-06  1.654E-06  4.207E-03  3.284E+00  0.000E+00  6.283E+00
  1.654E-06  2.021E-06  3.090E-03  3.781E+00  0.000E+00  6.283E+00
  2.021E-06  2.469E-06  2.529E-03  4.087E+00  0.000E+00  6.283E+00
  2.469E-06  3.017E-06  2.198E-03  5.466E+00  0.000E+00  6.283E+00
  3.017E-06  3.686E-06  1.874E-03  2.466E+00  0.000E+00  6.283E+00
  3.686E-06  4.504E-06  1.798E-03  1.414E+01  0.000E+00  6.283E+00
  4.504E-06  5.502E-06  1.264E-03  4.455E+00  0.000E+00  6.283E+00
  5.502E-06  6.723E-06  1.063E-03  1.806E+00  0.000E+00  6.283E+00
  6.723E-06  8.214E-06  8.552E-04  7.618E+00  0.000E+00  6.283E+00
  8.214E-06  1.004E-05  7.604E-04  9.332E+00  0.000E+00  6.283E+00
  1.004E-05  1.226E-05  6.218E-04  6.559E+00  0.000E+00  6.283E+00
  1.226E-05  1.498E-05  5.160E-04  1.641E+00  0.000E+00  6.283E+00
  1.498E-05  1.830E-05  4.019E-04  3.323E+00  0.000E+00  6.283E+00
  1.830E-05  2.236E-05  3.481E-04  2.130E+00  0.000E+00  6.283E+00
  2.236E-05  2.732E-05  3.103E-04  3.640E+00  0.000E+00  6.283E+00
  2.732E-05  3.338E-05  2.387E-04  3.351E+00  0.000E+00  6.283E+00
  3.338E-05  4.078E-05  2.362E-04  7.693E+00  0.000E+00  6.283E+00
  4.078E-05  4.982E-05  1.903E-04  6.724E+00  0.000E+00  6.283E+00
  4.982E-05  6.087E-05  1.600E-04  6.084E+00  0.000E+00  6.283E+00
  6.087E-05  7.437E-05  1.404E-04  5.202E+00  0.000E+00  6.283E+00
  7.437E-05  9.087E-05  1.244E-04  3.104E+00  0.000E+00  6.283E+00
  9.087E-05  1.110E-04  1.153E-04  3.680E+00  0.000E+00  6.283E+00
  1.110E-04  1.356E-04  1.015E-04  3.564E+00  0.000E+00  6.283E+00
  1.356E-04  1.657E-04  9.092E-05  3.653E+00  0.000E+00  6.283E+00
  1.657E-04  2.025E-04  8.403E-05  2.125E+00  0.000E+00  6.283E+00
  2.025E-04  2.474E-04  7.649E-05  3.980E+00  0.000E+00  6.283E+00
  2.474E-04  3.022E-04  6.956E-05  2.575E+00  0.000E+00  6.283E+00
  3.022E-04  3.693E-04  6.298E-05  9.830E-01  0.000E+00  6.283E+00
  3.693E-04  4.512E-04  5.961E-05  2.691E+00  0.000E+00  6.283E+00
  4.512E-04  5.512E-04  5.567E-05  1.945E+00  0.000E+00  6.283E+00
  5.512E-04  6.735E-04  5.022E-05  1.443E+00  0.000E+00  6.283E+00
  6.735E-04  8.228E-04  4.709E-05  9.513E-01  0.000E+00  6.283E+00
  8.228E-04  1.005E-03  7.849E-05  7.803E-01  0.000E+00  6.283E+00
  1.005E-03  1.228E-03  0.000E+00  0.000E+00  0.000E+00  6.283E+00
  1.228E-03  1.501E-03  0.000E+00  0.000E+00  0.000E+00  6.283E+00
  1.501E-03  1.833E-03  0.000E+00  0.000E+00  0.000E+00  6.283E+00
  1.833E-03  2.240E-03  0.000E+00  0.000E+00  0.000E+00  6.283E+00
  2.240E-03  2.737E-03  0.000E+00  0.000E+00  0.000E+00  6.283E+00
  2.737E-03  3.344E-03  0.000E+00  0.000E+00  0.000E+00  6.283E+00
  3.344E-03  4.085E-03  0.000E+00  0.000E+00  0.000E+00  6.283E+00
  4.085E-03  4.991E-03  0.000E+00  0.000E+00  0.000E+00  6.283E+00
  4.991E-03  6.098E-03  0.000E+00  0.000E+00  0.000E+00  6.283E+00
  6.098E-03  7.450E-03  0.000E+00  0.000E+00  0.000E+00  6.283E+00
  7.450E-03  9.103E-03  0.000E+00  0.000E+00  0.000E+00  6.283E+00
  9.103E-03  1.112E-02  0.000E+00  0.000E+00  0.000E+00  6.283E+00
  1.112E-02  1.359E-02  0.000E+00  0.000E+00  0.000E+00  6.283E+00
  1.359E-02  1.660E-02  0.000E+00  0.000E+00  0.000E+00  6.283E+00
  1.660E-02  2.028E-02  0.000E+00  0.000E+00  0.000E+00  6.283E+00
  2.028E-02  2.478E-02  0.000E+00  0.000E+00  0.000E+00  6.283E+00
  2.478E-02  3.028E-02  0.000E+00  0.000E+00  0.000E+00  6.283E+00
  3.028E-02  3.699E-02  0.000E+00  0.000E+00  0.000E+00  6.283E+00
  3.699E-02  4.520E-02  0.000E+00  0.000E+00  0.000E+00  6.283E+00
  4.520E-02  5.522E-02  0.000E+00  0.000E+00  0.000E+00  6.283E+00
  5.522E-02  6.746E-02  0.000E+00  0.000E+00  0.000E+00  6.283E+00
  6.746E-02  8.243E-02  0.000E+00  0.000E+00  0.000E+00  6.283E+00
  8.243E-02  1.007E-01  0.000E+00  0.000E+00  0.000E+00  6.283E+00
  1.007E-01  1.230E-01  0.000E+00  0.000E+00  0.000E+00  6.283E+00
  1.230E-01  1.503E-01  0.000E+00  0.000E+00  0.000E+00  6.283E+00
  1.503E-01  1.837E-01  0.000E+00  0.000E+00  0.000E+00  6.283E+00
  1.837E-01  2.244E-01  0.000E+00  0.000E+00  0.000E+00  6.283E+00
  2.244E-01  2.742E-01  0.000E+00  0.000E+00  0.000E+00  6.283E+00
  2.742E-01  3.350E-01  0.000E+00  0.000E+00  0.000E+00  6.283E+00
  3.350E-01  4.092E-01  0.000E+00  0.000E+00  0.000E+00  6.283E+00
  4.092E-01  5.000E-01  0.000E+00  0.000E+00  0.000E+00  6.283E+00
  5.000E-01  5.000E-01  0.000E+00  0.000E+00  0.000E+00  6.283E+00

  1.000E-09  1.000E-09  0.000E+00  0.000E+00  6.283E+00  6.283E+00
  1.222E-09  1.222E-09  0.000E+00  0.000E+00  6.283E+00  6.283E+00
  1.493E-09  1.493E-09  0.000E+00  0.000E+00  6.283E+00  6.283E+00
  1.824E-09  1.824E-09  0.000E+00  0.000E+00  6.283E+00  6.283E+00
  2.228E-09  2.228E-09  0.000E+00  0.000E+00  6.283E+00  6.283E+00
  2.722E-09  2.722E-09  0.000E+00  0.000E+00  6.283E+00  6.283E+00
  3.326E-09  3.326E-09  0.000E+00  0.000E+00  6.283E+00  6.283E+00
  4.064E-09  4.064E-09  0.000E+00  0.000E+00  6.283E+00  6.283E+00
  4.965E-09  4.965E-09  0.000E+00  0.000E+00  6.283E+00  6.283E+00
  6.066E-09  6.066E-09  0.000E+00  0.000E+00  6.283E+00  6.283E+00
  7.411E-09  7.411E-09  0.000E+00  0.000E+00  6.283E+00  6.283E+00
  9.055E-09  9.055E-09  0.000E+00  0.000E+00  6.283E+00  6.283E+00
  1.106E-08  1.106E-08  0.000E+00  0.000E+00  6.283E+00  6.283E+00
  1.352E-08  1.352E-08  0.000E+00  0.000E+00  6.283E+00  6.283E+00
  1.651E-08  1.651E-08  0.000E+00  0.000E+00  6.283E+00  6.283E+00
  2.018E-08  2.018E-08  0.000E+00  0.000E+00  6.283E+00  6.283E+00
  2.465E-08  2.465E-08  0.000E+00  0.000E+00  6.283E+00  6.283E+00
  3.012E-08  3.012E-08  0.000E+00  0.000E+00  6.283E+00  6.283E+00
  3.680E-08  3.680E-08  0.000E+00  0.000E+00  6.283E+00  6.283E+00
  4.496E-08  4.496E-08  0.000E+00  0.000E+00  6.283E+00  6.283E+00
  5.493E-08  5.493E-08  0.000E+00  0.000E+00  6.283E+00  6.283E+00
  6.711E-08  6.711E-08  0.000E+00  0.000E+00  6.283E+00  6.283E+00
  8.199E-08  8.199E-08  0.000E+00  0.000E+00  6.283E+00  6.283E+00
  1.002E-07  1.002E-07  0.000E+00  0.000E+00  6.283E+00  6.283E+00
  1.224E-07  1.224E-07  0.000E+00  0.000E+00  6.283E+00  6.283E+00
  1.495E-07  1.495E-07  0.000E+00  0.000E+00  6.283E+00  6.283E+00
  1.827E-07  1.827E-07  0.000E+00  0.000E+00  6.283E+00  6.283E+00
  2.232E-07  2.232E-07  0.000E+00  0.000E+00  6.283E+00  6.283E+00
  2.727E-07  2.727E-07  0.000E+00  0.000E+00  6.283E+00  6.283E+00
  3.332E-07  3.332E-07  0.000E+00  0.000E+00  6.283E+00  6.283E+00
  4.071E-07  4.071E-07  0.000E+00  0.000E+00  6.283E+00  6.283E+00
  4.974E-07  4.974E-07  0.000E+00  0.000E+00  6.283E+00  6.283E+00
  6.077E-07  6.077E-07  0.000E+00  0.000E+00  6.283E+00  6.283E+00
  7.424E-07  7.424E-07  0.000E+00  0.000E+00  6.283E+00  6.283E+00
  9.071E-07  9.071E-07  0.000E+00  0.000E+00  6.283E+00  6.283E+00
  1.108E-06  1.108E-06  0.000E+00  0.000E+00  6.283E+00  6.283E+00
  1.354E-06  1.354E-06  0.000E+00  0.000E+00  6.283E+00  6.283E+00
  1.654E-06  1.654E-06  0.000E+00  0.000E+00  6.283E+00  6.283E+00
  2.021E-06  2.021E-06  0.000E+00  0.000E+00  6.283E+00  6.283E+00
  2.469E-06  2.469E-06  0.000E+00  0.000E+00  6.283E+00  6.283E+00
  3.017E-06  3.017E-06  0.000E+00  0.000E+00  6.283E+00  6.283E+00
  3.686E-06  3.686E-06  0.000E+00  0.000E+00  6.283E+00  6.283E+00
  4.504E-06  4.504E-06  0.000E+00  0.000E+00  6.283E+00  6.283E+00
  5.502E-06  5.502E-06  0.000E+00  0.000E+00  6.283E+00  6.283E+00
  6.723E-06  6.723E-06  0.000E+00  0.000E+00  6.283E+00  6.283E+00
  8.214E-06  8.214E-06  0.000E+00  0.000E+00  6.283E+00  6.283E+00
  1.004E-05  1.004E-05  0.000E+00  0.000E+00  6.283E+00  6.283E+00
  1.226E-05  1.226E-05  0.000E+00  0.000E+00  6.283E+00  6.283E+00
  1.498E-05  1.498E-05  0.000E+00  0.000E+00  6.283E+00  6.283E+00
  1.830E-05  1.830E-05  0.000E+00  0.000E+00  6.283E+00  6.283E+00
  2.236E-05  2.236E-05  0.000E+00  0.000E+00  6.283E+00  6.283E+00
  2.732E-05  2.732E-05  0.000E+00  0.000E+00  6.283E+00  6.283E+00
  3.338E-05  3.338E-05  0.000E+00  0.000E+00  6.283E+00  6.283E+00
  4.078E-05  4.078E-05  0.000E+00  0.000E+00  6.283E+00  6.283E+00
  4.982E-05  4.982E-05  0.000E+00  0.000E+00  6.283E+00  6.283E+00
  6.087E-05  6.087E-05  0.000E+00  0.000E+00  6.283E+00  6.283E+00
  7.437E-05  7.437E-05  0.000E+00  0.000E+00  6.283E+00  6.283E+00
  9.087E-05  9.087E-05  0.000E+00  0.000E+00  6.283E+00  6.283E+00
  1.110E-04  1.110E-04  0.000E+00  0.000E+00  6.283E+00  6.283E+00
  1.356E-04  1.356E-04  0.000E+00  0.000E+00  6.283E+00  6.283E+00
  1.657E-04  1.657E-04  0.000E+00  0.000E+00  6.283E+00  6.283E+00
  2.025E-04  2.025E-04  0.000E+00  0.000E+00  6.283E+00  6.283E+00
  2.474E-04  2.474E-04  0.000E+00  0.000E+00  6.283E+00  6.283E+00
  3.022E-04  3.022E-04  0.000E+00  0.000E+00  6.283E+00  6.283E+00
  3.693E-04  3.693E-04  0.000E+00  0.000E+00  6.283E+00  6.283E+00
  4.512E-04  4.512E-04  0.000E+00  0.000E+00  6.283E+00  6.283E+00
  5.512E-04  5.512E-04  0.000E+00  0.000E+00  6.283E+00  6.283E+00
  6.735E-04  6.735E-04  0.000E+00  0.000E+00  6.283E+00  6.283E+00
  8.228E-04  8.228E-04  0.000E+00  0.000E+00  6.283E+00  6.283E+00
  1.005E-03  1.005E-03  0.000E+00  0.000E+00  6.283E+00  6.283E+00
  1.228E-03  1.228E-03  0.000E+00  0.000E+00  6.283E+00  6.283E+00
  1.501E-03  1.501E-03  0.000E+00  0.000E+00  6.283E+00  6.283E+00
  1.833E-03  1.833E-03  0.000E+00  0.000E+00  6.283E+00  6.283E+00
  2.240E-03  2.240E-03  0.000E+00  0.000E+00  6.283E+00  6.283E+00
  2.737E-03  2.737E-03  0.000E+00  0.000E+00  6.283E+00  6.283E+00
  3.344E-03  3.344E-03  0.000E+00  0.000E+00  6.283E+00  6.283E+00
  4.085E-03  4.085E-03  0.000E+00  0.000E+00  6.283E+00  6.283E+00
  4.991E-03  4.991E-03  0.000E+00  0.000E+00  6.283E+00  6.283E+00
  6.098E-03  6.098E-03  0.000E+00  0.000E+00  6.283E+00  6.283E+00
  7.450E-03  7.450E-03  0.000E+00  0.000E+00  6.283E+00  6.283E+00
  9.103E-03  9.103E-03  0.000E+00  0.000E+00  6.283E+00  6.283E+00
  1.112E-02  1.112E-02  0.000E+00  0.000E+00  6.283E+00  6.283E+00
  1.359E-02  1.359E-02  0.000E+00  0.000E+00  6.283E+00  6.283E+00
  1.660E-02  1.660E-02  0.000E+00  0.000E+00  6.283E+00  6.283E+00
  2.028E-02  2.028E-02  0.000E+00  0.000E+00  6.283E+00  6.283E+00
  2.478E-02  2.478E-02  0.000E+00  0.000E+00  6.283E+00  6.283E+00
  3.028E-02  3.028E-02  0.000E+00  0.000E+00  6.283E+00  6.283E+00
  3.699E-02  3.699E-02  0.000E+00  0.000E+00  6.283E+00  6.283E+00
  4.520E-02  4.520E-02  0.000E+00  0.000E+00  6.283E+00  6.283E+00
  5.522E-02  5.522E-02  0.000E+00  0.000E+00  6.283E+00  6.283E+00
  6.746E-02  6.746E-02  0.000E+00  0.000E+00  6.283E+00  6.283E+00
  8.243E-02  8.243E-02  0.000E+00  0.000E+00  6.283E+00  6.283E+00
  1.007E-01  1.007E-01  0.000E+00  0.000E+00  6.283E+00  6.283E+00
  1.230E-01  1.230E-01  0.000E+00  0.000E+00  6.283E+00  6.283E+00
  1.503E-01  1.503E-01  0.000E+00  0.000E+00  6.283E+00  6.283E+00
  1.837E-01  1.837E-01  0.000E+00  0.000E+00  6.283E+00  6.283E+00
  2.244E-01  2.244E-01  0.000E+00  0.000E+00  6.283E+00  6.283E+00
  2.742E-01  2.742E-01  0.000E+00  0.000E+00  6.283E+00  6.283E+00
  3.350E-01  3.350E-01  0.000E+00  0.000E+00  6.283E+00  6.283E+00
  4.092E-01  4.092E-01  0.000E+00  0.000E+00  6.283E+00  6.283E+00
  5.000E-01  5.000E-01  0.000E+00  0.000E+00  6.283E+00  6.283E+00
