 # Detector n:            1   BdxNeut   (integrated over solid angle)
 # N. of energy intervals         100
  1.000E-09  1.222E-09  1.386E+01  1.360E+01
  1.222E-09  1.493E-09  1.277E+01  5.073E+00
  1.493E-09  1.824E-09  1.038E+01  1.056E+01
  1.824E-09  2.228E-09  8.288E+00  8.160E+00
  2.228E-09  2.722E-09  6.567E+00  6.939E+00
  2.722E-09  3.326E-09  4.649E+00  6.359E+00
  3.326E-09  4.064E-09  5.070E+00  4.977E+00
  4.064E-09  4.965E-09  3.556E+00  7.074E+00
  4.965E-09  6.066E-09  4.333E+00  5.620E+00
  6.066E-09  7.411E-09  2.634E+00  9.772E+00
  7.411E-09  9.055E-09  2.570E+00  2.660E+00
  9.055E-09  1.106E-08  2.147E+00  7.486E+00
  1.106E-08  1.352E-08  1.873E+00  6.306E+00
  1.352E-08  1.651E-08  1.560E+00  1.085E+01
  1.651E-08  2.018E-08  1.254E+00  6.849E+00
  2.018E-08  2.465E-08  8.113E-01  4.817E+00
  2.465E-08  3.012E-08  8.937E-01  5.524E+00
  3.012E-08  3.680E-08  6.347E-01  6.222E+00
  3.680E-08  4.496E-08  6.430E-01  7.202E+00
  4.496E-08  5.493E-08  4.945E-01  5.011E+00
  5.493E-08  6.711E-08  4.100E-01  6.990E+00
  6.711E-08  8.199E-08  3.009E-01  6.541E+00
  8.199E-08  1.002E-07  2.396E-01  7.452E+00
  1.002E-07  1.224E-07  2.138E-01  6.030E+00
  1.224E-07  1.495E-07  1.882E-01  1.628E+01
  1.495E-07  1.827E-07  1.557E-01  5.587E+00
  1.827E-07  2.232E-07  1.341E-01  9.748E+00
  2.232E-07  2.727E-07  9.423E-02  4.326E+00
  2.727E-07  3.332E-07  8.927E-02  5.596E+00
  3.332E-07  4.071E-07  8.025E-02  4.235E+00
  4.071E-07  4.974E-07  5.781E-02  5.298E+00
  4.974E-07  6.077E-07  4.890E-02  8.086E+00
  6.077E-07  7.424E-07  4.029E-02  4.108E+00
  7.424E-07  9.071E-07  2.980E-02  1.061E+01
  9.071E-07  1.108E-06  2.904E-02  4.825E+00
  1.108E-06  1.354E-06  2.409E-02  5.346E+00
  1.354E-06  1.654E-06  2.049E-02  8.822E+00
  1.654E-06  2.021E-06  1.425E-02  6.839E+00
  2.021E-06  2.469E-06  1.329E-02  1.070E+01
  2.469E-06  3.017E-06  1.080E-02  5.386E+00
  3.017E-06  3.686E-06  1.015E-02  7.816E+00
  3.686E-06  4.504E-06  8.245E-03  8.438E+00
  4.504E-06  5.502E-06  5.954E-03  6.715E+00
  5.502E-06  6.723E-06  5.671E-03  6.006E+00
  6.723E-06  8.214E-06  4.188E-03  5.377E+00
  8.214E-06  1.004E-05  3.787E-03  8.822E+00
  1.004E-05  1.226E-05  3.051E-03  5.539E+00
  1.226E-05  1.498E-05  2.657E-03  3.412E+00
  1.498E-05  1.830E-05  2.237E-03  4.743E+00
  1.830E-05  2.236E-05  2.143E-03  3.371E+00
  2.236E-05  2.732E-05  1.771E-03  7.227E+00
  2.732E-05  3.338E-05  1.453E-03  6.225E+00
  3.338E-05  4.078E-05  1.379E-03  4.933E+00
  4.078E-05  4.982E-05  1.118E-03  3.302E+00
  4.982E-05  6.087E-05  1.038E-03  4.086E+00
  6.087E-05  7.437E-05  8.505E-04  4.153E+00
  7.437E-05  9.087E-05  8.617E-04  1.380E+00
  9.087E-05  1.110E-04  6.990E-04  4.468E+00
  1.110E-04  1.356E-04  6.168E-04  3.503E+00
  1.356E-04  1.657E-04  5.462E-04  5.022E+00
  1.657E-04  2.025E-04  5.627E-04  1.024E+01
  2.025E-04  2.474E-04  4.785E-04  2.791E+00
  2.474E-04  3.022E-04  4.418E-04  3.403E+00
  3.022E-04  3.693E-04  4.087E-04  4.447E+00
  3.693E-04  4.512E-04  3.908E-04  2.725E+00
  4.512E-04  5.512E-04  3.576E-04  2.449E+00
  5.512E-04  6.735E-04  3.566E-04  4.969E+00
  6.735E-04  8.228E-04  3.192E-04  4.232E+00
  8.228E-04  1.005E-03  3.052E-04  1.993E+00
  1.005E-03  1.228E-03  2.824E-04  2.649E+00
  1.228E-03  1.501E-03  2.785E-04  3.972E+00
  1.501E-03  1.833E-03  2.562E-04  1.942E+00
  1.833E-03  2.240E-03  2.497E-04  3.413E+00
  2.240E-03  2.737E-03  2.369E-04  9.863E-01
  2.737E-03  3.344E-03  2.147E-04  1.262E+00
  3.344E-03  4.085E-03  1.944E-04  2.209E+00
  4.085E-03  4.991E-03  1.942E-04  5.659E-01
  4.991E-03  6.098E-03  1.839E-04  9.990E-01
  6.098E-03  7.450E-03  1.771E-04  7.250E-01
  7.450E-03  9.103E-03  1.627E-04  1.499E+00
  9.103E-03  1.112E-02  1.668E-04  1.066E+00
  1.112E-02  1.359E-02  1.588E-04  2.100E+00
  1.359E-02  1.660E-02  1.503E-04  8.145E-01
  1.660E-02  2.028E-02  1.439E-04  4.976E-01
  2.028E-02  2.478E-02  1.325E-04  7.638E-01
  2.478E-02  3.028E-02  1.235E-04  6.482E-01
  3.028E-02  3.699E-02  1.166E-04  6.637E-01
  3.699E-02  4.520E-02  1.115E-04  3.501E-01
  4.520E-02  5.522E-02  1.840E-03  3.120E-02
  5.522E-02  6.746E-02  0.000E+00  0.000E+00
  6.746E-02  8.243E-02  0.000E+00  0.000E+00
  8.243E-02  1.007E-01  0.000E+00  0.000E+00
  1.007E-01  1.230E-01  0.000E+00  0.000E+00
  1.230E-01  1.503E-01  0.000E+00  0.000E+00
  1.503E-01  1.837E-01  0.000E+00  0.000E+00
  1.837E-01  2.244E-01  0.000E+00  0.000E+00
  2.244E-01  2.742E-01  0.000E+00  0.000E+00
  2.742E-01  3.350E-01  0.000E+00  0.000E+00
  3.350E-01  4.092E-01  0.000E+00  0.000E+00
  4.092E-01  5.000E-01  0.000E+00  0.000E+00


 # double differential distributions
 # number of solid angle intervals           1
 # Block n:            1     0.00000000      :   6.28318548    
  1.000E-09  1.222E-09  2.206E+00  1.360E+01  0.000E+00  6.283E+00
  1.222E-09  1.493E-09  2.032E+00  5.073E+00  0.000E+00  6.283E+00
  1.493E-09  1.824E-09  1.651E+00  1.056E+01  0.000E+00  6.283E+00
  1.824E-09  2.228E-09  1.319E+00  8.160E+00  0.000E+00  6.283E+00
  2.228E-09  2.722E-09  1.045E+00  6.939E+00  0.000E+00  6.283E+00
  2.722E-09  3.326E-09  7.399E-01  6.359E+00  0.000E+00  6.283E+00
  3.326E-09  4.064E-09  8.069E-01  4.977E+00  0.000E+00  6.283E+00
  4.064E-09  4.965E-09  5.659E-01  7.074E+00  0.000E+00  6.283E+00
  4.965E-09  6.066E-09  6.896E-01  5.620E+00  0.000E+00  6.283E+00
  6.066E-09  7.411E-09  4.193E-01  9.772E+00  0.000E+00  6.283E+00
  7.411E-09  9.055E-09  4.091E-01  2.660E+00  0.000E+00  6.283E+00
  9.055E-09  1.106E-08  3.417E-01  7.486E+00  0.000E+00  6.283E+00
  1.106E-08  1.352E-08  2.981E-01  6.306E+00  0.000E+00  6.283E+00
  1.352E-08  1.651E-08  2.482E-01  1.085E+01  0.000E+00  6.283E+00
  1.651E-08  2.018E-08  1.997E-01  6.849E+00  0.000E+00  6.283E+00
  2.018E-08  2.465E-08  1.291E-01  4.817E+00  0.000E+00  6.283E+00
  2.465E-08  3.012E-08  1.422E-01  5.524E+00  0.000E+00  6.283E+00
  3.012E-08  3.680E-08  1.010E-01  6.222E+00  0.000E+00  6.283E+00
  3.680E-08  4.496E-08  1.023E-01  7.202E+00  0.000E+00  6.283E+00
  4.496E-08  5.493E-08  7.870E-02  5.011E+00  0.000E+00  6.283E+00
  5.493E-08  6.711E-08  6.525E-02  6.990E+00  0.000E+00  6.283E+00
  6.711E-08  8.199E-08  4.790E-02  6.541E+00  0.000E+00  6.283E+00
  8.199E-08  1.002E-07  3.814E-02  7.452E+00  0.000E+00  6.283E+00
  1.002E-07  1.224E-07  3.403E-02  6.030E+00  0.000E+00  6.283E+00
  1.224E-07  1.495E-07  2.995E-02  1.628E+01  0.000E+00  6.283E+00
  1.495E-07  1.827E-07  2.477E-02  5.587E+00  0.000E+00  6.283E+00
  1.827E-07  2.232E-07  2.135E-02  9.748E+00  0.000E+00  6.283E+00
  2.232E-07  2.727E-07  1.500E-02  4.326E+00  0.000E+00  6.283E+00
  2.727E-07  3.332E-07  1.421E-02  5.596E+00  0.000E+00  6.283E+00
  3.332E-07  4.071E-07  1.277E-02  4.235E+00  0.000E+00  6.283E+00
  4.071E-07  4.974E-07  9.201E-03  5.298E+00  0.000E+00  6.283E+00
  4.974E-07  6.077E-07  7.783E-03  8.086E+00  0.000E+00  6.283E+00
  6.077E-07  7.424E-07  6.412E-03  4.108E+00  0.000E+00  6.283E+00
  7.424E-07  9.071E-07  4.742E-03  1.061E+01  0.000E+00  6.283E+00
  9.071E-07  1.108E-06  4.622E-03  4.825E+00  0.000E+00  6.283E+00
  1.108E-06  1.354E-06  3.835E-03  5.346E+00  0.000E+00  6.283E+00
  1.354E-06  1.654E-06  3.261E-03  8.822E+00  0.000E+00  6.283E+00
  1.654E-06  2.021E-06  2.269E-03  6.839E+00  0.000E+00  6.283E+00
  2.021E-06  2.469E-06  2.114E-03  1.070E+01  0.000E+00  6.283E+00
  2.469E-06  3.017E-06  1.718E-03  5.386E+00  0.000E+00  6.283E+00
  3.017E-06  3.686E-06  1.616E-03  7.816E+00  0.000E+00  6.283E+00
  3.686E-06  4.504E-06  1.312E-03  8.438E+00  0.000E+00  6.283E+00
  4.504E-06  5.502E-06  9.475E-04  6.715E+00  0.000E+00  6.283E+00
  5.502E-06  6.723E-06  9.026E-04  6.006E+00  0.000E+00  6.283E+00
  6.723E-06  8.214E-06  6.666E-04  5.377E+00  0.000E+00  6.283E+00
  8.214E-06  1.004E-05  6.027E-04  8.822E+00  0.000E+00  6.283E+00
  1.004E-05  1.226E-05  4.855E-04  5.539E+00  0.000E+00  6.283E+00
  1.226E-05  1.498E-05  4.228E-04  3.412E+00  0.000E+00  6.283E+00
  1.498E-05  1.830E-05  3.560E-04  4.743E+00  0.000E+00  6.283E+00
  1.830E-05  2.236E-05  3.410E-04  3.371E+00  0.000E+00  6.283E+00
  2.236E-05  2.732E-05  2.818E-04  7.227E+00  0.000E+00  6.283E+00
  2.732E-05  3.338E-05  2.313E-04  6.225E+00  0.000E+00  6.283E+00
  3.338E-05  4.078E-05  2.194E-04  4.933E+00  0.000E+00  6.283E+00
  4.078E-05  4.982E-05  1.780E-04  3.302E+00  0.000E+00  6.283E+00
  4.982E-05  6.087E-05  1.651E-04  4.086E+00  0.000E+00  6.283E+00
  6.087E-05  7.437E-05  1.354E-04  4.153E+00  0.000E+00  6.283E+00
  7.437E-05  9.087E-05  1.371E-04  1.380E+00  0.000E+00  6.283E+00
  9.087E-05  1.110E-04  1.112E-04  4.468E+00  0.000E+00  6.283E+00
  1.110E-04  1.356E-04  9.817E-05  3.503E+00  0.000E+00  6.283E+00
  1.356E-04  1.657E-04  8.693E-05  5.022E+00  0.000E+00  6.283E+00
  1.657E-04  2.025E-04  8.956E-05  1.024E+01  0.000E+00  6.283E+00
  2.025E-04  2.474E-04  7.615E-05  2.791E+00  0.000E+00  6.283E+00
  2.474E-04  3.022E-04  7.032E-05  3.403E+00  0.000E+00  6.283E+00
  3.022E-04  3.693E-04  6.504E-05  4.447E+00  0.000E+00  6.283E+00
  3.693E-04  4.512E-04  6.220E-05  2.725E+00  0.000E+00  6.283E+00
  4.512E-04  5.512E-04  5.692E-05  2.449E+00  0.000E+00  6.283E+00
  5.512E-04  6.735E-04  5.676E-05  4.969E+00  0.000E+00  6.283E+00
  6.735E-04  8.228E-04  5.081E-05  4.232E+00  0.000E+00  6.283E+00
  8.228E-04  1.005E-03  4.858E-05  1.993E+00  0.000E+00  6.283E+00
  1.005E-03  1.228E-03  4.495E-05  2.649E+00  0.000E+00  6.283E+00
  1.228E-03  1.501E-03  4.433E-05  3.972E+00  0.000E+00  6.283E+00
  1.501E-03  1.833E-03  4.078E-05  1.942E+00  0.000E+00  6.283E+00
  1.833E-03  2.240E-03  3.974E-05  3.413E+00  0.000E+00  6.283E+00
  2.240E-03  2.737E-03  3.770E-05  9.863E-01  0.000E+00  6.283E+00
  2.737E-03  3.344E-03  3.417E-05  1.262E+00  0.000E+00  6.283E+00
  3.344E-03  4.085E-03  3.094E-05  2.209E+00  0.000E+00  6.283E+00
  4.085E-03  4.991E-03  3.091E-05  5.659E-01  0.000E+00  6.283E+00
  4.991E-03  6.098E-03  2.926E-05  9.990E-01  0.000E+00  6.283E+00
  6.098E-03  7.450E-03  2.818E-05  7.250E-01  0.000E+00  6.283E+00
  7.450E-03  9.103E-03  2.590E-05  1.499E+00  0.000E+00  6.283E+00
  9.103E-03  1.112E-02  2.654E-05  1.066E+00  0.000E+00  6.283E+00
  1.112E-02  1.359E-02  2.527E-05  2.100E+00  0.000E+00  6.283E+00
  1.359E-02  1.660E-02  2.392E-05  8.145E-01  0.000E+00  6.283E+00
  1.660E-02  2.028E-02  2.291E-05  4.976E-01  0.000E+00  6.283E+00
  2.028E-02  2.478E-02  2.109E-05  7.638E-01  0.000E+00  6.283E+00
  2.478E-02  3.028E-02  1.966E-05  6.482E-01  0.000E+00  6.283E+00
  3.028E-02  3.699E-02  1.855E-05  6.637E-01  0.000E+00  6.283E+00
  3.699E-02  4.520E-02  1.774E-05  3.501E-01  0.000E+00  6.283E+00
  4.520E-02  5.522E-02  2.929E-04  3.120E-02  0.000E+00  6.283E+00
  5.522E-02  6.746E-02  0.000E+00  0.000E+00  0.000E+00  6.283E+00
  6.746E-02  8.243E-02  0.000E+00  0.000E+00  0.000E+00  6.283E+00
  8.243E-02  1.007E-01  0.000E+00  0.000E+00  0.000E+00  6.283E+00
  1.007E-01  1.230E-01  0.000E+00  0.000E+00  0.000E+00  6.283E+00
  1.230E-01  1.503E-01  0.000E+00  0.000E+00  0.000E+00  6.283E+00
  1.503E-01  1.837E-01  0.000E+00  0.000E+00  0.000E+00  6.283E+00
  1.837E-01  2.244E-01  0.000E+00  0.000E+00  0.000E+00  6.283E+00
  2.244E-01  2.742E-01  0.000E+00  0.000E+00  0.000E+00  6.283E+00
  2.742E-01  3.350E-01  0.000E+00  0.000E+00  0.000E+00  6.283E+00
  3.350E-01  4.092E-01  0.000E+00  0.000E+00  0.000E+00  6.283E+00
  4.092E-01  5.000E-01  0.000E+00  0.000E+00  0.000E+00  6.283E+00
  5.000E-01  5.000E-01  0.000E+00  0.000E+00  0.000E+00  6.283E+00

  1.000E-09  1.000E-09  0.000E+00  0.000E+00  6.283E+00  6.283E+00
  1.222E-09  1.222E-09  0.000E+00  0.000E+00  6.283E+00  6.283E+00
  1.493E-09  1.493E-09  0.000E+00  0.000E+00  6.283E+00  6.283E+00
  1.824E-09  1.824E-09  0.000E+00  0.000E+00  6.283E+00  6.283E+00
  2.228E-09  2.228E-09  0.000E+00  0.000E+00  6.283E+00  6.283E+00
  2.722E-09  2.722E-09  0.000E+00  0.000E+00  6.283E+00  6.283E+00
  3.326E-09  3.326E-09  0.000E+00  0.000E+00  6.283E+00  6.283E+00
  4.064E-09  4.064E-09  0.000E+00  0.000E+00  6.283E+00  6.283E+00
  4.965E-09  4.965E-09  0.000E+00  0.000E+00  6.283E+00  6.283E+00
  6.066E-09  6.066E-09  0.000E+00  0.000E+00  6.283E+00  6.283E+00
  7.411E-09  7.411E-09  0.000E+00  0.000E+00  6.283E+00  6.283E+00
  9.055E-09  9.055E-09  0.000E+00  0.000E+00  6.283E+00  6.283E+00
  1.106E-08  1.106E-08  0.000E+00  0.000E+00  6.283E+00  6.283E+00
  1.352E-08  1.352E-08  0.000E+00  0.000E+00  6.283E+00  6.283E+00
  1.651E-08  1.651E-08  0.000E+00  0.000E+00  6.283E+00  6.283E+00
  2.018E-08  2.018E-08  0.000E+00  0.000E+00  6.283E+00  6.283E+00
  2.465E-08  2.465E-08  0.000E+00  0.000E+00  6.283E+00  6.283E+00
  3.012E-08  3.012E-08  0.000E+00  0.000E+00  6.283E+00  6.283E+00
  3.680E-08  3.680E-08  0.000E+00  0.000E+00  6.283E+00  6.283E+00
  4.496E-08  4.496E-08  0.000E+00  0.000E+00  6.283E+00  6.283E+00
  5.493E-08  5.493E-08  0.000E+00  0.000E+00  6.283E+00  6.283E+00
  6.711E-08  6.711E-08  0.000E+00  0.000E+00  6.283E+00  6.283E+00
  8.199E-08  8.199E-08  0.000E+00  0.000E+00  6.283E+00  6.283E+00
  1.002E-07  1.002E-07  0.000E+00  0.000E+00  6.283E+00  6.283E+00
  1.224E-07  1.224E-07  0.000E+00  0.000E+00  6.283E+00  6.283E+00
  1.495E-07  1.495E-07  0.000E+00  0.000E+00  6.283E+00  6.283E+00
  1.827E-07  1.827E-07  0.000E+00  0.000E+00  6.283E+00  6.283E+00
  2.232E-07  2.232E-07  0.000E+00  0.000E+00  6.283E+00  6.283E+00
  2.727E-07  2.727E-07  0.000E+00  0.000E+00  6.283E+00  6.283E+00
  3.332E-07  3.332E-07  0.000E+00  0.000E+00  6.283E+00  6.283E+00
  4.071E-07  4.071E-07  0.000E+00  0.000E+00  6.283E+00  6.283E+00
  4.974E-07  4.974E-07  0.000E+00  0.000E+00  6.283E+00  6.283E+00
  6.077E-07  6.077E-07  0.000E+00  0.000E+00  6.283E+00  6.283E+00
  7.424E-07  7.424E-07  0.000E+00  0.000E+00  6.283E+00  6.283E+00
  9.071E-07  9.071E-07  0.000E+00  0.000E+00  6.283E+00  6.283E+00
  1.108E-06  1.108E-06  0.000E+00  0.000E+00  6.283E+00  6.283E+00
  1.354E-06  1.354E-06  0.000E+00  0.000E+00  6.283E+00  6.283E+00
  1.654E-06  1.654E-06  0.000E+00  0.000E+00  6.283E+00  6.283E+00
  2.021E-06  2.021E-06  0.000E+00  0.000E+00  6.283E+00  6.283E+00
  2.469E-06  2.469E-06  0.000E+00  0.000E+00  6.283E+00  6.283E+00
  3.017E-06  3.017E-06  0.000E+00  0.000E+00  6.283E+00  6.283E+00
  3.686E-06  3.686E-06  0.000E+00  0.000E+00  6.283E+00  6.283E+00
  4.504E-06  4.504E-06  0.000E+00  0.000E+00  6.283E+00  6.283E+00
  5.502E-06  5.502E-06  0.000E+00  0.000E+00  6.283E+00  6.283E+00
  6.723E-06  6.723E-06  0.000E+00  0.000E+00  6.283E+00  6.283E+00
  8.214E-06  8.214E-06  0.000E+00  0.000E+00  6.283E+00  6.283E+00
  1.004E-05  1.004E-05  0.000E+00  0.000E+00  6.283E+00  6.283E+00
  1.226E-05  1.226E-05  0.000E+00  0.000E+00  6.283E+00  6.283E+00
  1.498E-05  1.498E-05  0.000E+00  0.000E+00  6.283E+00  6.283E+00
  1.830E-05  1.830E-05  0.000E+00  0.000E+00  6.283E+00  6.283E+00
  2.236E-05  2.236E-05  0.000E+00  0.000E+00  6.283E+00  6.283E+00
  2.732E-05  2.732E-05  0.000E+00  0.000E+00  6.283E+00  6.283E+00
  3.338E-05  3.338E-05  0.000E+00  0.000E+00  6.283E+00  6.283E+00
  4.078E-05  4.078E-05  0.000E+00  0.000E+00  6.283E+00  6.283E+00
  4.982E-05  4.982E-05  0.000E+00  0.000E+00  6.283E+00  6.283E+00
  6.087E-05  6.087E-05  0.000E+00  0.000E+00  6.283E+00  6.283E+00
  7.437E-05  7.437E-05  0.000E+00  0.000E+00  6.283E+00  6.283E+00
  9.087E-05  9.087E-05  0.000E+00  0.000E+00  6.283E+00  6.283E+00
  1.110E-04  1.110E-04  0.000E+00  0.000E+00  6.283E+00  6.283E+00
  1.356E-04  1.356E-04  0.000E+00  0.000E+00  6.283E+00  6.283E+00
  1.657E-04  1.657E-04  0.000E+00  0.000E+00  6.283E+00  6.283E+00
  2.025E-04  2.025E-04  0.000E+00  0.000E+00  6.283E+00  6.283E+00
  2.474E-04  2.474E-04  0.000E+00  0.000E+00  6.283E+00  6.283E+00
  3.022E-04  3.022E-04  0.000E+00  0.000E+00  6.283E+00  6.283E+00
  3.693E-04  3.693E-04  0.000E+00  0.000E+00  6.283E+00  6.283E+00
  4.512E-04  4.512E-04  0.000E+00  0.000E+00  6.283E+00  6.283E+00
  5.512E-04  5.512E-04  0.000E+00  0.000E+00  6.283E+00  6.283E+00
  6.735E-04  6.735E-04  0.000E+00  0.000E+00  6.283E+00  6.283E+00
  8.228E-04  8.228E-04  0.000E+00  0.000E+00  6.283E+00  6.283E+00
  1.005E-03  1.005E-03  0.000E+00  0.000E+00  6.283E+00  6.283E+00
  1.228E-03  1.228E-03  0.000E+00  0.000E+00  6.283E+00  6.283E+00
  1.501E-03  1.501E-03  0.000E+00  0.000E+00  6.283E+00  6.283E+00
  1.833E-03  1.833E-03  0.000E+00  0.000E+00  6.283E+00  6.283E+00
  2.240E-03  2.240E-03  0.000E+00  0.000E+00  6.283E+00  6.283E+00
  2.737E-03  2.737E-03  0.000E+00  0.000E+00  6.283E+00  6.283E+00
  3.344E-03  3.344E-03  0.000E+00  0.000E+00  6.283E+00  6.283E+00
  4.085E-03  4.085E-03  0.000E+00  0.000E+00  6.283E+00  6.283E+00
  4.991E-03  4.991E-03  0.000E+00  0.000E+00  6.283E+00  6.283E+00
  6.098E-03  6.098E-03  0.000E+00  0.000E+00  6.283E+00  6.283E+00
  7.450E-03  7.450E-03  0.000E+00  0.000E+00  6.283E+00  6.283E+00
  9.103E-03  9.103E-03  0.000E+00  0.000E+00  6.283E+00  6.283E+00
  1.112E-02  1.112E-02  0.000E+00  0.000E+00  6.283E+00  6.283E+00
  1.359E-02  1.359E-02  0.000E+00  0.000E+00  6.283E+00  6.283E+00
  1.660E-02  1.660E-02  0.000E+00  0.000E+00  6.283E+00  6.283E+00
  2.028E-02  2.028E-02  0.000E+00  0.000E+00  6.283E+00  6.283E+00
  2.478E-02  2.478E-02  0.000E+00  0.000E+00  6.283E+00  6.283E+00
  3.028E-02  3.028E-02  0.000E+00  0.000E+00  6.283E+00  6.283E+00
  3.699E-02  3.699E-02  0.000E+00  0.000E+00  6.283E+00  6.283E+00
  4.520E-02  4.520E-02  0.000E+00  0.000E+00  6.283E+00  6.283E+00
  5.522E-02  5.522E-02  0.000E+00  0.000E+00  6.283E+00  6.283E+00
  6.746E-02  6.746E-02  0.000E+00  0.000E+00  6.283E+00  6.283E+00
  8.243E-02  8.243E-02  0.000E+00  0.000E+00  6.283E+00  6.283E+00
  1.007E-01  1.007E-01  0.000E+00  0.000E+00  6.283E+00  6.283E+00
  1.230E-01  1.230E-01  0.000E+00  0.000E+00  6.283E+00  6.283E+00
  1.503E-01  1.503E-01  0.000E+00  0.000E+00  6.283E+00  6.283E+00
  1.837E-01  1.837E-01  0.000E+00  0.000E+00  6.283E+00  6.283E+00
  2.244E-01  2.244E-01  0.000E+00  0.000E+00  6.283E+00  6.283E+00
  2.742E-01  2.742E-01  0.000E+00  0.000E+00  6.283E+00  6.283E+00
  3.350E-01  3.350E-01  0.000E+00  0.000E+00  6.283E+00  6.283E+00
  4.092E-01  4.092E-01  0.000E+00  0.000E+00  6.283E+00  6.283E+00
  5.000E-01  5.000E-01  0.000E+00  0.000E+00  6.283E+00  6.283E+00
