 # Detector n:            1   BdxNeut   (integrated over solid angle)
 # N. of energy intervals         100
  1.000E-09  1.222E-09  0.000E+00  0.000E+00
  1.222E-09  1.493E-09  0.000E+00  0.000E+00
  1.493E-09  1.824E-09  0.000E+00  0.000E+00
  1.824E-09  2.228E-09  0.000E+00  0.000E+00
  2.228E-09  2.722E-09  0.000E+00  0.000E+00
  2.722E-09  3.326E-09  0.000E+00  0.000E+00
  3.326E-09  4.064E-09  0.000E+00  0.000E+00
  4.064E-09  4.965E-09  0.000E+00  0.000E+00
  4.965E-09  6.066E-09  0.000E+00  0.000E+00
  6.066E-09  7.411E-09  0.000E+00  0.000E+00
  7.411E-09  9.055E-09  0.000E+00  0.000E+00
  9.055E-09  1.106E-08  0.000E+00  0.000E+00
  1.106E-08  1.352E-08  0.000E+00  0.000E+00
  1.352E-08  1.651E-08  0.000E+00  0.000E+00
  1.651E-08  2.018E-08  0.000E+00  0.000E+00
  2.018E-08  2.465E-08  0.000E+00  0.000E+00
  2.465E-08  3.012E-08  0.000E+00  0.000E+00
  3.012E-08  3.680E-08  0.000E+00  0.000E+00
  3.680E-08  4.496E-08  0.000E+00  0.000E+00
  4.496E-08  5.493E-08  0.000E+00  0.000E+00
  5.493E-08  6.711E-08  0.000E+00  0.000E+00
  6.711E-08  8.199E-08  0.000E+00  0.000E+00
  8.199E-08  1.002E-07  0.000E+00  0.000E+00
  1.002E-07  1.224E-07  0.000E+00  0.000E+00
  1.224E-07  1.495E-07  0.000E+00  0.000E+00
  1.495E-07  1.827E-07  0.000E+00  0.000E+00
  1.827E-07  2.232E-07  0.000E+00  0.000E+00
  2.232E-07  2.727E-07  0.000E+00  0.000E+00
  2.727E-07  3.332E-07  0.000E+00  0.000E+00
  3.332E-07  4.071E-07  0.000E+00  0.000E+00
  4.071E-07  4.974E-07  0.000E+00  0.000E+00
  4.974E-07  6.077E-07  0.000E+00  0.000E+00
  6.077E-07  7.424E-07  0.000E+00  0.000E+00
  7.424E-07  9.071E-07  0.000E+00  0.000E+00
  9.071E-07  1.108E-06  0.000E+00  0.000E+00
  1.108E-06  1.354E-06  0.000E+00  0.000E+00
  1.354E-06  1.654E-06  2.286E-04  9.900E+01
  1.654E-06  2.021E-06  0.000E+00  0.000E+00
  2.021E-06  2.469E-06  0.000E+00  0.000E+00
  2.469E-06  3.017E-06  2.871E-04  9.900E+01
  3.017E-06  3.686E-06  3.388E-04  6.436E+01
  3.686E-06  4.504E-06  2.589E-03  9.900E+01
  4.504E-06  5.502E-06  2.233E-04  9.900E+01
  5.502E-06  6.723E-06  2.978E-04  2.777E+01
  6.723E-06  8.214E-06  4.467E-04  2.984E+01
  8.214E-06  1.004E-05  6.785E-04  8.453E+00
  1.004E-05  1.226E-05  5.504E-04  3.712E+01
  1.226E-05  1.498E-05  1.028E-03  2.455E+01
  1.498E-05  1.830E-05  1.153E-03  7.163E+00
  1.830E-05  2.236E-05  1.392E-03  1.499E+01
  2.236E-05  2.732E-05  1.636E-03  1.588E+01
  2.732E-05  3.338E-05  1.738E-03  1.538E+01
  3.338E-05  4.078E-05  1.858E-03  1.175E+01
  4.078E-05  4.982E-05  1.875E-03  7.041E+00
  4.982E-05  6.087E-05  1.872E-03  7.457E+00
  6.087E-05  7.437E-05  1.524E-03  1.204E+01
  7.437E-05  9.087E-05  1.276E-03  3.869E+00
  9.087E-05  1.110E-04  9.256E-04  8.123E+00
  1.110E-04  1.356E-04  7.819E-04  1.433E+01
  1.356E-04  1.657E-04  4.132E-04  1.012E+01
  1.657E-04  2.025E-04  2.929E-04  8.565E+00
  2.025E-04  2.474E-04  2.333E-04  1.919E+01
  2.474E-04  3.022E-04  1.277E-04  8.757E+00
  3.022E-04  3.693E-04  9.283E-05  1.421E+01
  3.693E-04  4.512E-04  5.219E-05  1.157E+01
  4.512E-04  5.512E-04  5.560E-05  2.301E+01
  5.512E-04  6.735E-04  2.423E-05  1.908E+01
  6.735E-04  8.228E-04  9.550E-06  2.669E+01
  8.228E-04  1.005E-03  6.457E-06  4.031E+01
  1.005E-03  1.228E-03  2.971E-06  4.105E+01
  1.228E-03  1.501E-03  1.170E-06  6.574E+01
  1.501E-03  1.833E-03  6.765E-07  4.608E+01
  1.833E-03  2.240E-03  5.615E-07  4.758E+01
  2.240E-03  2.737E-03  5.525E-07  6.200E+01
  2.737E-03  3.344E-03  4.380E-07  6.874E+01
  3.344E-03  4.085E-03  5.284E-07  6.799E+01
  4.085E-03  4.991E-03  7.272E-08  9.900E+01
  4.991E-03  6.098E-03  1.043E-07  6.148E+01
  6.098E-03  7.450E-03  1.405E-07  4.186E+01
  7.450E-03  9.103E-03  0.000E+00  0.000E+00
  9.103E-03  1.112E-02  7.901E-07  3.460E+01
  1.112E-02  1.359E-02  0.000E+00  0.000E+00
  1.359E-02  1.660E-02  0.000E+00  0.000E+00
  1.660E-02  2.028E-02  0.000E+00  0.000E+00
  2.028E-02  2.478E-02  0.000E+00  0.000E+00
  2.478E-02  3.028E-02  0.000E+00  0.000E+00
  3.028E-02  3.699E-02  0.000E+00  0.000E+00
  3.699E-02  4.520E-02  0.000E+00  0.000E+00
  4.520E-02  5.522E-02  0.000E+00  0.000E+00
  5.522E-02  6.746E-02  0.000E+00  0.000E+00
  6.746E-02  8.243E-02  0.000E+00  0.000E+00
  8.243E-02  1.007E-01  0.000E+00  0.000E+00
  1.007E-01  1.230E-01  0.000E+00  0.000E+00
  1.230E-01  1.503E-01  0.000E+00  0.000E+00
  1.503E-01  1.837E-01  0.000E+00  0.000E+00
  1.837E-01  2.244E-01  0.000E+00  0.000E+00
  2.244E-01  2.742E-01  0.000E+00  0.000E+00
  2.742E-01  3.350E-01  0.000E+00  0.000E+00
  3.350E-01  4.092E-01  0.000E+00  0.000E+00
  4.092E-01  5.000E-01  0.000E+00  0.000E+00


 # double differential distributions
 # number of solid angle intervals           1
 # Block n:            1     0.00000000      :   6.28318548    
  1.000E-09  1.222E-09  0.000E+00  0.000E+00  0.000E+00  6.283E+00
  1.222E-09  1.493E-09  0.000E+00  0.000E+00  0.000E+00  6.283E+00
  1.493E-09  1.824E-09  0.000E+00  0.000E+00  0.000E+00  6.283E+00
  1.824E-09  2.228E-09  0.000E+00  0.000E+00  0.000E+00  6.283E+00
  2.228E-09  2.722E-09  0.000E+00  0.000E+00  0.000E+00  6.283E+00
  2.722E-09  3.326E-09  0.000E+00  0.000E+00  0.000E+00  6.283E+00
  3.326E-09  4.064E-09  0.000E+00  0.000E+00  0.000E+00  6.283E+00
  4.064E-09  4.965E-09  0.000E+00  0.000E+00  0.000E+00  6.283E+00
  4.965E-09  6.066E-09  0.000E+00  0.000E+00  0.000E+00  6.283E+00
  6.066E-09  7.411E-09  0.000E+00  0.000E+00  0.000E+00  6.283E+00
  7.411E-09  9.055E-09  0.000E+00  0.000E+00  0.000E+00  6.283E+00
  9.055E-09  1.106E-08  0.000E+00  0.000E+00  0.000E+00  6.283E+00
  1.106E-08  1.352E-08  0.000E+00  0.000E+00  0.000E+00  6.283E+00
  1.352E-08  1.651E-08  0.000E+00  0.000E+00  0.000E+00  6.283E+00
  1.651E-08  2.018E-08  0.000E+00  0.000E+00  0.000E+00  6.283E+00
  2.018E-08  2.465E-08  0.000E+00  0.000E+00  0.000E+00  6.283E+00
  2.465E-08  3.012E-08  0.000E+00  0.000E+00  0.000E+00  6.283E+00
  3.012E-08  3.680E-08  0.000E+00  0.000E+00  0.000E+00  6.283E+00
  3.680E-08  4.496E-08  0.000E+00  0.000E+00  0.000E+00  6.283E+00
  4.496E-08  5.493E-08  0.000E+00  0.000E+00  0.000E+00  6.283E+00
  5.493E-08  6.711E-08  0.000E+00  0.000E+00  0.000E+00  6.283E+00
  6.711E-08  8.199E-08  0.000E+00  0.000E+00  0.000E+00  6.283E+00
  8.199E-08  1.002E-07  0.000E+00  0.000E+00  0.000E+00  6.283E+00
  1.002E-07  1.224E-07  0.000E+00  0.000E+00  0.000E+00  6.283E+00
  1.224E-07  1.495E-07  0.000E+00  0.000E+00  0.000E+00  6.283E+00
  1.495E-07  1.827E-07  0.000E+00  0.000E+00  0.000E+00  6.283E+00
  1.827E-07  2.232E-07  0.000E+00  0.000E+00  0.000E+00  6.283E+00
  2.232E-07  2.727E-07  0.000E+00  0.000E+00  0.000E+00  6.283E+00
  2.727E-07  3.332E-07  0.000E+00  0.000E+00  0.000E+00  6.283E+00
  3.332E-07  4.071E-07  0.000E+00  0.000E+00  0.000E+00  6.283E+00
  4.071E-07  4.974E-07  0.000E+00  0.000E+00  0.000E+00  6.283E+00
  4.974E-07  6.077E-07  0.000E+00  0.000E+00  0.000E+00  6.283E+00
  6.077E-07  7.424E-07  0.000E+00  0.000E+00  0.000E+00  6.283E+00
  7.424E-07  9.071E-07  0.000E+00  0.000E+00  0.000E+00  6.283E+00
  9.071E-07  1.108E-06  0.000E+00  0.000E+00  0.000E+00  6.283E+00
  1.108E-06  1.354E-06  0.000E+00  0.000E+00  0.000E+00  6.283E+00
  1.354E-06  1.654E-06  3.638E-05  9.900E+01  0.000E+00  6.283E+00
  1.654E-06  2.021E-06  0.000E+00  0.000E+00  0.000E+00  6.283E+00
  2.021E-06  2.469E-06  0.000E+00  0.000E+00  0.000E+00  6.283E+00
  2.469E-06  3.017E-06  4.570E-05  9.900E+01  0.000E+00  6.283E+00
  3.017E-06  3.686E-06  5.393E-05  6.436E+01  0.000E+00  6.283E+00
  3.686E-06  4.504E-06  4.121E-04  9.900E+01  0.000E+00  6.283E+00
  4.504E-06  5.502E-06  3.555E-05  9.900E+01  0.000E+00  6.283E+00
  5.502E-06  6.723E-06  4.740E-05  2.777E+01  0.000E+00  6.283E+00
  6.723E-06  8.214E-06  7.109E-05  2.984E+01  0.000E+00  6.283E+00
  8.214E-06  1.004E-05  1.080E-04  8.453E+00  0.000E+00  6.283E+00
  1.004E-05  1.226E-05  8.760E-05  3.712E+01  0.000E+00  6.283E+00
  1.226E-05  1.498E-05  1.637E-04  2.455E+01  0.000E+00  6.283E+00
  1.498E-05  1.830E-05  1.835E-04  7.163E+00  0.000E+00  6.283E+00
  1.830E-05  2.236E-05  2.216E-04  1.499E+01  0.000E+00  6.283E+00
  2.236E-05  2.732E-05  2.605E-04  1.588E+01  0.000E+00  6.283E+00
  2.732E-05  3.338E-05  2.767E-04  1.538E+01  0.000E+00  6.283E+00
  3.338E-05  4.078E-05  2.957E-04  1.175E+01  0.000E+00  6.283E+00
  4.078E-05  4.982E-05  2.984E-04  7.041E+00  0.000E+00  6.283E+00
  4.982E-05  6.087E-05  2.980E-04  7.457E+00  0.000E+00  6.283E+00
  6.087E-05  7.437E-05  2.425E-04  1.204E+01  0.000E+00  6.283E+00
  7.437E-05  9.087E-05  2.031E-04  3.869E+00  0.000E+00  6.283E+00
  9.087E-05  1.110E-04  1.473E-04  8.123E+00  0.000E+00  6.283E+00
  1.110E-04  1.356E-04  1.244E-04  1.433E+01  0.000E+00  6.283E+00
  1.356E-04  1.657E-04  6.577E-05  1.012E+01  0.000E+00  6.283E+00
  1.657E-04  2.025E-04  4.662E-05  8.565E+00  0.000E+00  6.283E+00
  2.025E-04  2.474E-04  3.714E-05  1.919E+01  0.000E+00  6.283E+00
  2.474E-04  3.022E-04  2.033E-05  8.757E+00  0.000E+00  6.283E+00
  3.022E-04  3.693E-04  1.477E-05  1.421E+01  0.000E+00  6.283E+00
  3.693E-04  4.512E-04  8.306E-06  1.157E+01  0.000E+00  6.283E+00
  4.512E-04  5.512E-04  8.849E-06  2.301E+01  0.000E+00  6.283E+00
  5.512E-04  6.735E-04  3.856E-06  1.908E+01  0.000E+00  6.283E+00
  6.735E-04  8.228E-04  1.520E-06  2.669E+01  0.000E+00  6.283E+00
  8.228E-04  1.005E-03  1.028E-06  4.031E+01  0.000E+00  6.283E+00
  1.005E-03  1.228E-03  4.728E-07  4.105E+01  0.000E+00  6.283E+00
  1.228E-03  1.501E-03  1.862E-07  6.574E+01  0.000E+00  6.283E+00
  1.501E-03  1.833E-03  1.077E-07  4.608E+01  0.000E+00  6.283E+00
  1.833E-03  2.240E-03  8.936E-08  4.758E+01  0.000E+00  6.283E+00
  2.240E-03  2.737E-03  8.793E-08  6.200E+01  0.000E+00  6.283E+00
  2.737E-03  3.344E-03  6.970E-08  6.874E+01  0.000E+00  6.283E+00
  3.344E-03  4.085E-03  8.409E-08  6.799E+01  0.000E+00  6.283E+00
  4.085E-03  4.991E-03  1.157E-08  9.900E+01  0.000E+00  6.283E+00
  4.991E-03  6.098E-03  1.661E-08  6.148E+01  0.000E+00  6.283E+00
  6.098E-03  7.450E-03  2.236E-08  4.186E+01  0.000E+00  6.283E+00
  7.450E-03  9.103E-03  0.000E+00  0.000E+00  0.000E+00  6.283E+00
  9.103E-03  1.112E-02  1.257E-07  3.460E+01  0.000E+00  6.283E+00
  1.112E-02  1.359E-02  0.000E+00  0.000E+00  0.000E+00  6.283E+00
  1.359E-02  1.660E-02  0.000E+00  0.000E+00  0.000E+00  6.283E+00
  1.660E-02  2.028E-02  0.000E+00  0.000E+00  0.000E+00  6.283E+00
  2.028E-02  2.478E-02  0.000E+00  0.000E+00  0.000E+00  6.283E+00
  2.478E-02  3.028E-02  0.000E+00  0.000E+00  0.000E+00  6.283E+00
  3.028E-02  3.699E-02  0.000E+00  0.000E+00  0.000E+00  6.283E+00
  3.699E-02  4.520E-02  0.000E+00  0.000E+00  0.000E+00  6.283E+00
  4.520E-02  5.522E-02  0.000E+00  0.000E+00  0.000E+00  6.283E+00
  5.522E-02  6.746E-02  0.000E+00  0.000E+00  0.000E+00  6.283E+00
  6.746E-02  8.243E-02  0.000E+00  0.000E+00  0.000E+00  6.283E+00
  8.243E-02  1.007E-01  0.000E+00  0.000E+00  0.000E+00  6.283E+00
  1.007E-01  1.230E-01  0.000E+00  0.000E+00  0.000E+00  6.283E+00
  1.230E-01  1.503E-01  0.000E+00  0.000E+00  0.000E+00  6.283E+00
  1.503E-01  1.837E-01  0.000E+00  0.000E+00  0.000E+00  6.283E+00
  1.837E-01  2.244E-01  0.000E+00  0.000E+00  0.000E+00  6.283E+00
  2.244E-01  2.742E-01  0.000E+00  0.000E+00  0.000E+00  6.283E+00
  2.742E-01  3.350E-01  0.000E+00  0.000E+00  0.000E+00  6.283E+00
  3.350E-01  4.092E-01  0.000E+00  0.000E+00  0.000E+00  6.283E+00
  4.092E-01  5.000E-01  0.000E+00  0.000E+00  0.000E+00  6.283E+00
  5.000E-01  5.000E-01  0.000E+00  0.000E+00  0.000E+00  6.283E+00

  1.000E-09  1.000E-09  0.000E+00  0.000E+00  6.283E+00  6.283E+00
  1.222E-09  1.222E-09  0.000E+00  0.000E+00  6.283E+00  6.283E+00
  1.493E-09  1.493E-09  0.000E+00  0.000E+00  6.283E+00  6.283E+00
  1.824E-09  1.824E-09  0.000E+00  0.000E+00  6.283E+00  6.283E+00
  2.228E-09  2.228E-09  0.000E+00  0.000E+00  6.283E+00  6.283E+00
  2.722E-09  2.722E-09  0.000E+00  0.000E+00  6.283E+00  6.283E+00
  3.326E-09  3.326E-09  0.000E+00  0.000E+00  6.283E+00  6.283E+00
  4.064E-09  4.064E-09  0.000E+00  0.000E+00  6.283E+00  6.283E+00
  4.965E-09  4.965E-09  0.000E+00  0.000E+00  6.283E+00  6.283E+00
  6.066E-09  6.066E-09  0.000E+00  0.000E+00  6.283E+00  6.283E+00
  7.411E-09  7.411E-09  0.000E+00  0.000E+00  6.283E+00  6.283E+00
  9.055E-09  9.055E-09  0.000E+00  0.000E+00  6.283E+00  6.283E+00
  1.106E-08  1.106E-08  0.000E+00  0.000E+00  6.283E+00  6.283E+00
  1.352E-08  1.352E-08  0.000E+00  0.000E+00  6.283E+00  6.283E+00
  1.651E-08  1.651E-08  0.000E+00  0.000E+00  6.283E+00  6.283E+00
  2.018E-08  2.018E-08  0.000E+00  0.000E+00  6.283E+00  6.283E+00
  2.465E-08  2.465E-08  0.000E+00  0.000E+00  6.283E+00  6.283E+00
  3.012E-08  3.012E-08  0.000E+00  0.000E+00  6.283E+00  6.283E+00
  3.680E-08  3.680E-08  0.000E+00  0.000E+00  6.283E+00  6.283E+00
  4.496E-08  4.496E-08  0.000E+00  0.000E+00  6.283E+00  6.283E+00
  5.493E-08  5.493E-08  0.000E+00  0.000E+00  6.283E+00  6.283E+00
  6.711E-08  6.711E-08  0.000E+00  0.000E+00  6.283E+00  6.283E+00
  8.199E-08  8.199E-08  0.000E+00  0.000E+00  6.283E+00  6.283E+00
  1.002E-07  1.002E-07  0.000E+00  0.000E+00  6.283E+00  6.283E+00
  1.224E-07  1.224E-07  0.000E+00  0.000E+00  6.283E+00  6.283E+00
  1.495E-07  1.495E-07  0.000E+00  0.000E+00  6.283E+00  6.283E+00
  1.827E-07  1.827E-07  0.000E+00  0.000E+00  6.283E+00  6.283E+00
  2.232E-07  2.232E-07  0.000E+00  0.000E+00  6.283E+00  6.283E+00
  2.727E-07  2.727E-07  0.000E+00  0.000E+00  6.283E+00  6.283E+00
  3.332E-07  3.332E-07  0.000E+00  0.000E+00  6.283E+00  6.283E+00
  4.071E-07  4.071E-07  0.000E+00  0.000E+00  6.283E+00  6.283E+00
  4.974E-07  4.974E-07  0.000E+00  0.000E+00  6.283E+00  6.283E+00
  6.077E-07  6.077E-07  0.000E+00  0.000E+00  6.283E+00  6.283E+00
  7.424E-07  7.424E-07  0.000E+00  0.000E+00  6.283E+00  6.283E+00
  9.071E-07  9.071E-07  0.000E+00  0.000E+00  6.283E+00  6.283E+00
  1.108E-06  1.108E-06  0.000E+00  0.000E+00  6.283E+00  6.283E+00
  1.354E-06  1.354E-06  0.000E+00  0.000E+00  6.283E+00  6.283E+00
  1.654E-06  1.654E-06  0.000E+00  0.000E+00  6.283E+00  6.283E+00
  2.021E-06  2.021E-06  0.000E+00  0.000E+00  6.283E+00  6.283E+00
  2.469E-06  2.469E-06  0.000E+00  0.000E+00  6.283E+00  6.283E+00
  3.017E-06  3.017E-06  0.000E+00  0.000E+00  6.283E+00  6.283E+00
  3.686E-06  3.686E-06  0.000E+00  0.000E+00  6.283E+00  6.283E+00
  4.504E-06  4.504E-06  0.000E+00  0.000E+00  6.283E+00  6.283E+00
  5.502E-06  5.502E-06  0.000E+00  0.000E+00  6.283E+00  6.283E+00
  6.723E-06  6.723E-06  0.000E+00  0.000E+00  6.283E+00  6.283E+00
  8.214E-06  8.214E-06  0.000E+00  0.000E+00  6.283E+00  6.283E+00
  1.004E-05  1.004E-05  0.000E+00  0.000E+00  6.283E+00  6.283E+00
  1.226E-05  1.226E-05  0.000E+00  0.000E+00  6.283E+00  6.283E+00
  1.498E-05  1.498E-05  0.000E+00  0.000E+00  6.283E+00  6.283E+00
  1.830E-05  1.830E-05  0.000E+00  0.000E+00  6.283E+00  6.283E+00
  2.236E-05  2.236E-05  0.000E+00  0.000E+00  6.283E+00  6.283E+00
  2.732E-05  2.732E-05  0.000E+00  0.000E+00  6.283E+00  6.283E+00
  3.338E-05  3.338E-05  0.000E+00  0.000E+00  6.283E+00  6.283E+00
  4.078E-05  4.078E-05  0.000E+00  0.000E+00  6.283E+00  6.283E+00
  4.982E-05  4.982E-05  0.000E+00  0.000E+00  6.283E+00  6.283E+00
  6.087E-05  6.087E-05  0.000E+00  0.000E+00  6.283E+00  6.283E+00
  7.437E-05  7.437E-05  0.000E+00  0.000E+00  6.283E+00  6.283E+00
  9.087E-05  9.087E-05  0.000E+00  0.000E+00  6.283E+00  6.283E+00
  1.110E-04  1.110E-04  0.000E+00  0.000E+00  6.283E+00  6.283E+00
  1.356E-04  1.356E-04  0.000E+00  0.000E+00  6.283E+00  6.283E+00
  1.657E-04  1.657E-04  0.000E+00  0.000E+00  6.283E+00  6.283E+00
  2.025E-04  2.025E-04  0.000E+00  0.000E+00  6.283E+00  6.283E+00
  2.474E-04  2.474E-04  0.000E+00  0.000E+00  6.283E+00  6.283E+00
  3.022E-04  3.022E-04  0.000E+00  0.000E+00  6.283E+00  6.283E+00
  3.693E-04  3.693E-04  0.000E+00  0.000E+00  6.283E+00  6.283E+00
  4.512E-04  4.512E-04  0.000E+00  0.000E+00  6.283E+00  6.283E+00
  5.512E-04  5.512E-04  0.000E+00  0.000E+00  6.283E+00  6.283E+00
  6.735E-04  6.735E-04  0.000E+00  0.000E+00  6.283E+00  6.283E+00
  8.228E-04  8.228E-04  0.000E+00  0.000E+00  6.283E+00  6.283E+00
  1.005E-03  1.005E-03  0.000E+00  0.000E+00  6.283E+00  6.283E+00
  1.228E-03  1.228E-03  0.000E+00  0.000E+00  6.283E+00  6.283E+00
  1.501E-03  1.501E-03  0.000E+00  0.000E+00  6.283E+00  6.283E+00
  1.833E-03  1.833E-03  0.000E+00  0.000E+00  6.283E+00  6.283E+00
  2.240E-03  2.240E-03  0.000E+00  0.000E+00  6.283E+00  6.283E+00
  2.737E-03  2.737E-03  0.000E+00  0.000E+00  6.283E+00  6.283E+00
  3.344E-03  3.344E-03  0.000E+00  0.000E+00  6.283E+00  6.283E+00
  4.085E-03  4.085E-03  0.000E+00  0.000E+00  6.283E+00  6.283E+00
  4.991E-03  4.991E-03  0.000E+00  0.000E+00  6.283E+00  6.283E+00
  6.098E-03  6.098E-03  0.000E+00  0.000E+00  6.283E+00  6.283E+00
  7.450E-03  7.450E-03  0.000E+00  0.000E+00  6.283E+00  6.283E+00
  9.103E-03  9.103E-03  0.000E+00  0.000E+00  6.283E+00  6.283E+00
  1.112E-02  1.112E-02  0.000E+00  0.000E+00  6.283E+00  6.283E+00
  1.359E-02  1.359E-02  0.000E+00  0.000E+00  6.283E+00  6.283E+00
  1.660E-02  1.660E-02  0.000E+00  0.000E+00  6.283E+00  6.283E+00
  2.028E-02  2.028E-02  0.000E+00  0.000E+00  6.283E+00  6.283E+00
  2.478E-02  2.478E-02  0.000E+00  0.000E+00  6.283E+00  6.283E+00
  3.028E-02  3.028E-02  0.000E+00  0.000E+00  6.283E+00  6.283E+00
  3.699E-02  3.699E-02  0.000E+00  0.000E+00  6.283E+00  6.283E+00
  4.520E-02  4.520E-02  0.000E+00  0.000E+00  6.283E+00  6.283E+00
  5.522E-02  5.522E-02  0.000E+00  0.000E+00  6.283E+00  6.283E+00
  6.746E-02  6.746E-02  0.000E+00  0.000E+00  6.283E+00  6.283E+00
  8.243E-02  8.243E-02  0.000E+00  0.000E+00  6.283E+00  6.283E+00
  1.007E-01  1.007E-01  0.000E+00  0.000E+00  6.283E+00  6.283E+00
  1.230E-01  1.230E-01  0.000E+00  0.000E+00  6.283E+00  6.283E+00
  1.503E-01  1.503E-01  0.000E+00  0.000E+00  6.283E+00  6.283E+00
  1.837E-01  1.837E-01  0.000E+00  0.000E+00  6.283E+00  6.283E+00
  2.244E-01  2.244E-01  0.000E+00  0.000E+00  6.283E+00  6.283E+00
  2.742E-01  2.742E-01  0.000E+00  0.000E+00  6.283E+00  6.283E+00
  3.350E-01  3.350E-01  0.000E+00  0.000E+00  6.283E+00  6.283E+00
  4.092E-01  4.092E-01  0.000E+00  0.000E+00  6.283E+00  6.283E+00
  5.000E-01  5.000E-01  0.000E+00  0.000E+00  6.283E+00  6.283E+00
