 # Detector n:            1   BdxNeut   (integrated over solid angle)
 # N. of energy intervals         100
  1.000E-09  1.222E-09  0.000E+00  0.000E+00
  1.222E-09  1.493E-09  0.000E+00  0.000E+00
  1.493E-09  1.824E-09  0.000E+00  0.000E+00
  1.824E-09  2.228E-09  0.000E+00  0.000E+00
  2.228E-09  2.722E-09  0.000E+00  0.000E+00
  2.722E-09  3.326E-09  0.000E+00  0.000E+00
  3.326E-09  4.064E-09  0.000E+00  0.000E+00
  4.064E-09  4.965E-09  0.000E+00  0.000E+00
  4.965E-09  6.066E-09  0.000E+00  0.000E+00
  6.066E-09  7.411E-09  0.000E+00  0.000E+00
  7.411E-09  9.055E-09  0.000E+00  0.000E+00
  9.055E-09  1.106E-08  0.000E+00  0.000E+00
  1.106E-08  1.352E-08  0.000E+00  0.000E+00
  1.352E-08  1.651E-08  0.000E+00  0.000E+00
  1.651E-08  2.018E-08  0.000E+00  0.000E+00
  2.018E-08  2.465E-08  0.000E+00  0.000E+00
  2.465E-08  3.012E-08  0.000E+00  0.000E+00
  3.012E-08  3.680E-08  0.000E+00  0.000E+00
  3.680E-08  4.496E-08  0.000E+00  0.000E+00
  4.496E-08  5.493E-08  0.000E+00  0.000E+00
  5.493E-08  6.711E-08  0.000E+00  0.000E+00
  6.711E-08  8.199E-08  0.000E+00  0.000E+00
  8.199E-08  1.002E-07  0.000E+00  0.000E+00
  1.002E-07  1.224E-07  0.000E+00  0.000E+00
  1.224E-07  1.495E-07  0.000E+00  0.000E+00
  1.495E-07  1.827E-07  5.532E-03  9.900E+01
  1.827E-07  2.232E-07  0.000E+00  0.000E+00
  2.232E-07  2.727E-07  0.000E+00  0.000E+00
  2.727E-07  3.332E-07  3.145E-03  9.900E+01
  3.332E-07  4.071E-07  9.058E-03  7.214E+01
  4.071E-07  4.974E-07  0.000E+00  0.000E+00
  4.974E-07  6.077E-07  9.498E-03  3.494E+01
  6.077E-07  7.424E-07  0.000E+00  0.000E+00
  7.424E-07  9.071E-07  5.532E-03  4.589E+01
  9.071E-07  1.108E-06  5.303E-03  3.126E+01
  1.108E-06  1.354E-06  7.244E-03  3.153E+01
  1.354E-06  1.654E-06  2.999E-03  4.425E+01
  1.654E-06  2.021E-06  6.772E-03  5.473E+01
  2.021E-06  2.469E-06  8.222E-03  2.605E+01
  2.469E-06  3.017E-06  8.160E-03  1.664E+01
  3.017E-06  3.686E-06  7.810E-03  1.343E+01
  3.686E-06  4.504E-06  1.697E-02  3.120E+01
  4.504E-06  5.502E-06  1.094E-02  4.382E+00
  5.502E-06  6.723E-06  1.954E-02  9.208E+00
  6.723E-06  8.214E-06  2.308E-02  5.018E+00
  8.214E-06  1.004E-05  2.959E-02  1.826E+01
  1.004E-05  1.226E-05  3.825E-02  2.258E+00
  1.226E-05  1.498E-05  4.758E-02  4.715E+00
  1.498E-05  1.830E-05  5.655E-02  7.702E+00
  1.830E-05  2.236E-05  6.481E-02  2.778E+00
  2.236E-05  2.732E-05  7.481E-02  3.436E+00
  2.732E-05  3.338E-05  8.004E-02  1.264E+00
  3.338E-05  4.078E-05  9.014E-02  4.348E+00
  4.078E-05  4.982E-05  9.295E-02  1.565E+00
  4.982E-05  6.087E-05  8.668E-02  1.822E+00
  6.087E-05  7.437E-05  8.946E-02  1.955E+00
  7.437E-05  9.087E-05  8.483E-02  2.611E+00
  9.087E-05  1.110E-04  7.161E-02  7.161E-01
  1.110E-04  1.356E-04  5.861E-02  3.436E+00
  1.356E-04  1.657E-04  4.489E-02  3.418E+00
  1.657E-04  2.025E-04  3.517E-02  2.102E+00
  2.025E-04  2.474E-04  2.615E-02  1.806E+00
  2.474E-04  3.022E-04  2.020E-02  1.832E+00
  3.022E-04  3.693E-04  1.676E-02  1.558E+00
  3.693E-04  4.512E-04  1.282E-02  2.995E+00
  4.512E-04  5.512E-04  1.031E-02  6.694E+00
  5.512E-04  6.735E-04  7.255E-03  3.136E+00
  6.735E-04  8.228E-04  5.098E-03  2.381E+00
  8.228E-04  1.005E-03  3.314E-03  4.086E+00
  1.005E-03  1.228E-03  2.115E-03  2.783E+00
  1.228E-03  1.501E-03  1.426E-03  4.139E+00
  1.501E-03  1.833E-03  8.613E-04  4.348E+00
  1.833E-03  2.240E-03  6.684E-04  7.955E+00
  2.240E-03  2.737E-03  4.418E-04  5.844E+00
  2.737E-03  3.344E-03  3.329E-04  1.316E+01
  3.344E-03  4.085E-03  2.112E-04  6.300E+00
  4.085E-03  4.991E-03  1.384E-04  2.981E+00
  4.991E-03  6.098E-03  8.045E-05  7.995E+00
  6.098E-03  7.450E-03  6.150E-05  6.834E+00
  7.450E-03  9.103E-03  4.800E-05  1.186E+01
  9.103E-03  1.112E-02  3.340E-05  1.195E+01
  1.112E-02  1.359E-02  2.727E-05  8.534E+00
  1.359E-02  1.660E-02  1.690E-05  3.463E+00
  1.660E-02  2.028E-02  1.699E-05  6.823E+00
  2.028E-02  2.478E-02  1.267E-05  7.111E+00
  2.478E-02  3.028E-02  1.029E-05  1.148E+01
  3.028E-02  3.699E-02  7.783E-06  6.309E+00
  3.699E-02  4.520E-02  7.075E-06  8.497E+00
  4.520E-02  5.522E-02  7.266E-06  5.299E+00
  5.522E-02  6.746E-02  6.642E-06  6.202E+00
  6.746E-02  8.243E-02  6.063E-06  5.217E+00
  8.243E-02  1.007E-01  4.033E-06  6.162E+00
  1.007E-01  1.230E-01  3.769E-06  5.515E+00
  1.230E-01  1.503E-01  2.601E-06  3.194E+00
  1.503E-01  1.837E-01  2.607E-06  2.634E+00
  1.837E-01  2.244E-01  4.837E-06  1.739E+00
  2.244E-01  2.742E-01  0.000E+00  0.000E+00
  2.742E-01  3.350E-01  0.000E+00  0.000E+00
  3.350E-01  4.092E-01  0.000E+00  0.000E+00
  4.092E-01  5.000E-01  0.000E+00  0.000E+00


 # double differential distributions
 # number of solid angle intervals           1
 # Block n:            1     0.00000000      :   6.28318548    
  1.000E-09  1.222E-09  0.000E+00  0.000E+00  0.000E+00  6.283E+00
  1.222E-09  1.493E-09  0.000E+00  0.000E+00  0.000E+00  6.283E+00
  1.493E-09  1.824E-09  0.000E+00  0.000E+00  0.000E+00  6.283E+00
  1.824E-09  2.228E-09  0.000E+00  0.000E+00  0.000E+00  6.283E+00
  2.228E-09  2.722E-09  0.000E+00  0.000E+00  0.000E+00  6.283E+00
  2.722E-09  3.326E-09  0.000E+00  0.000E+00  0.000E+00  6.283E+00
  3.326E-09  4.064E-09  0.000E+00  0.000E+00  0.000E+00  6.283E+00
  4.064E-09  4.965E-09  0.000E+00  0.000E+00  0.000E+00  6.283E+00
  4.965E-09  6.066E-09  0.000E+00  0.000E+00  0.000E+00  6.283E+00
  6.066E-09  7.411E-09  0.000E+00  0.000E+00  0.000E+00  6.283E+00
  7.411E-09  9.055E-09  0.000E+00  0.000E+00  0.000E+00  6.283E+00
  9.055E-09  1.106E-08  0.000E+00  0.000E+00  0.000E+00  6.283E+00
  1.106E-08  1.352E-08  0.000E+00  0.000E+00  0.000E+00  6.283E+00
  1.352E-08  1.651E-08  0.000E+00  0.000E+00  0.000E+00  6.283E+00
  1.651E-08  2.018E-08  0.000E+00  0.000E+00  0.000E+00  6.283E+00
  2.018E-08  2.465E-08  0.000E+00  0.000E+00  0.000E+00  6.283E+00
  2.465E-08  3.012E-08  0.000E+00  0.000E+00  0.000E+00  6.283E+00
  3.012E-08  3.680E-08  0.000E+00  0.000E+00  0.000E+00  6.283E+00
  3.680E-08  4.496E-08  0.000E+00  0.000E+00  0.000E+00  6.283E+00
  4.496E-08  5.493E-08  0.000E+00  0.000E+00  0.000E+00  6.283E+00
  5.493E-08  6.711E-08  0.000E+00  0.000E+00  0.000E+00  6.283E+00
  6.711E-08  8.199E-08  0.000E+00  0.000E+00  0.000E+00  6.283E+00
  8.199E-08  1.002E-07  0.000E+00  0.000E+00  0.000E+00  6.283E+00
  1.002E-07  1.224E-07  0.000E+00  0.000E+00  0.000E+00  6.283E+00
  1.224E-07  1.495E-07  0.000E+00  0.000E+00  0.000E+00  6.283E+00
  1.495E-07  1.827E-07  8.804E-04  9.900E+01  0.000E+00  6.283E+00
  1.827E-07  2.232E-07  0.000E+00  0.000E+00  0.000E+00  6.283E+00
  2.232E-07  2.727E-07  0.000E+00  0.000E+00  0.000E+00  6.283E+00
  2.727E-07  3.332E-07  5.006E-04  9.900E+01  0.000E+00  6.283E+00
  3.332E-07  4.071E-07  1.442E-03  7.214E+01  0.000E+00  6.283E+00
  4.071E-07  4.974E-07  0.000E+00  0.000E+00  0.000E+00  6.283E+00
  4.974E-07  6.077E-07  1.512E-03  3.494E+01  0.000E+00  6.283E+00
  6.077E-07  7.424E-07  0.000E+00  0.000E+00  0.000E+00  6.283E+00
  7.424E-07  9.071E-07  8.805E-04  4.589E+01  0.000E+00  6.283E+00
  9.071E-07  1.108E-06  8.440E-04  3.126E+01  0.000E+00  6.283E+00
  1.108E-06  1.354E-06  1.153E-03  3.153E+01  0.000E+00  6.283E+00
  1.354E-06  1.654E-06  4.773E-04  4.425E+01  0.000E+00  6.283E+00
  1.654E-06  2.021E-06  1.078E-03  5.473E+01  0.000E+00  6.283E+00
  2.021E-06  2.469E-06  1.309E-03  2.605E+01  0.000E+00  6.283E+00
  2.469E-06  3.017E-06  1.299E-03  1.664E+01  0.000E+00  6.283E+00
  3.017E-06  3.686E-06  1.243E-03  1.343E+01  0.000E+00  6.283E+00
  3.686E-06  4.504E-06  2.700E-03  3.120E+01  0.000E+00  6.283E+00
  4.504E-06  5.502E-06  1.741E-03  4.382E+00  0.000E+00  6.283E+00
  5.502E-06  6.723E-06  3.110E-03  9.208E+00  0.000E+00  6.283E+00
  6.723E-06  8.214E-06  3.673E-03  5.018E+00  0.000E+00  6.283E+00
  8.214E-06  1.004E-05  4.710E-03  1.826E+01  0.000E+00  6.283E+00
  1.004E-05  1.226E-05  6.087E-03  2.258E+00  0.000E+00  6.283E+00
  1.226E-05  1.498E-05  7.573E-03  4.715E+00  0.000E+00  6.283E+00
  1.498E-05  1.830E-05  8.999E-03  7.702E+00  0.000E+00  6.283E+00
  1.830E-05  2.236E-05  1.032E-02  2.778E+00  0.000E+00  6.283E+00
  2.236E-05  2.732E-05  1.191E-02  3.436E+00  0.000E+00  6.283E+00
  2.732E-05  3.338E-05  1.274E-02  1.264E+00  0.000E+00  6.283E+00
  3.338E-05  4.078E-05  1.435E-02  4.348E+00  0.000E+00  6.283E+00
  4.078E-05  4.982E-05  1.479E-02  1.565E+00  0.000E+00  6.283E+00
  4.982E-05  6.087E-05  1.379E-02  1.822E+00  0.000E+00  6.283E+00
  6.087E-05  7.437E-05  1.424E-02  1.955E+00  0.000E+00  6.283E+00
  7.437E-05  9.087E-05  1.350E-02  2.611E+00  0.000E+00  6.283E+00
  9.087E-05  1.110E-04  1.140E-02  7.161E-01  0.000E+00  6.283E+00
  1.110E-04  1.356E-04  9.328E-03  3.436E+00  0.000E+00  6.283E+00
  1.356E-04  1.657E-04  7.145E-03  3.418E+00  0.000E+00  6.283E+00
  1.657E-04  2.025E-04  5.597E-03  2.102E+00  0.000E+00  6.283E+00
  2.025E-04  2.474E-04  4.161E-03  1.806E+00  0.000E+00  6.283E+00
  2.474E-04  3.022E-04  3.215E-03  1.832E+00  0.000E+00  6.283E+00
  3.022E-04  3.693E-04  2.668E-03  1.558E+00  0.000E+00  6.283E+00
  3.693E-04  4.512E-04  2.040E-03  2.995E+00  0.000E+00  6.283E+00
  4.512E-04  5.512E-04  1.641E-03  6.694E+00  0.000E+00  6.283E+00
  5.512E-04  6.735E-04  1.155E-03  3.136E+00  0.000E+00  6.283E+00
  6.735E-04  8.228E-04  8.113E-04  2.381E+00  0.000E+00  6.283E+00
  8.228E-04  1.005E-03  5.274E-04  4.086E+00  0.000E+00  6.283E+00
  1.005E-03  1.228E-03  3.366E-04  2.783E+00  0.000E+00  6.283E+00
  1.228E-03  1.501E-03  2.269E-04  4.139E+00  0.000E+00  6.283E+00
  1.501E-03  1.833E-03  1.371E-04  4.348E+00  0.000E+00  6.283E+00
  1.833E-03  2.240E-03  1.064E-04  7.955E+00  0.000E+00  6.283E+00
  2.240E-03  2.737E-03  7.032E-05  5.844E+00  0.000E+00  6.283E+00
  2.737E-03  3.344E-03  5.299E-05  1.316E+01  0.000E+00  6.283E+00
  3.344E-03  4.085E-03  3.361E-05  6.300E+00  0.000E+00  6.283E+00
  4.085E-03  4.991E-03  2.203E-05  2.981E+00  0.000E+00  6.283E+00
  4.991E-03  6.098E-03  1.280E-05  7.995E+00  0.000E+00  6.283E+00
  6.098E-03  7.450E-03  9.787E-06  6.834E+00  0.000E+00  6.283E+00
  7.450E-03  9.103E-03  7.639E-06  1.186E+01  0.000E+00  6.283E+00
  9.103E-03  1.112E-02  5.316E-06  1.195E+01  0.000E+00  6.283E+00
  1.112E-02  1.359E-02  4.340E-06  8.534E+00  0.000E+00  6.283E+00
  1.359E-02  1.660E-02  2.689E-06  3.463E+00  0.000E+00  6.283E+00
  1.660E-02  2.028E-02  2.703E-06  6.823E+00  0.000E+00  6.283E+00
  2.028E-02  2.478E-02  2.016E-06  7.111E+00  0.000E+00  6.283E+00
  2.478E-02  3.028E-02  1.638E-06  1.148E+01  0.000E+00  6.283E+00
  3.028E-02  3.699E-02  1.239E-06  6.309E+00  0.000E+00  6.283E+00
  3.699E-02  4.520E-02  1.126E-06  8.497E+00  0.000E+00  6.283E+00
  4.520E-02  5.522E-02  1.156E-06  5.299E+00  0.000E+00  6.283E+00
  5.522E-02  6.746E-02  1.057E-06  6.202E+00  0.000E+00  6.283E+00
  6.746E-02  8.243E-02  9.650E-07  5.217E+00  0.000E+00  6.283E+00
  8.243E-02  1.007E-01  6.419E-07  6.162E+00  0.000E+00  6.283E+00
  1.007E-01  1.230E-01  5.999E-07  5.515E+00  0.000E+00  6.283E+00
  1.230E-01  1.503E-01  4.140E-07  3.194E+00  0.000E+00  6.283E+00
  1.503E-01  1.837E-01  4.149E-07  2.634E+00  0.000E+00  6.283E+00
  1.837E-01  2.244E-01  7.698E-07  1.739E+00  0.000E+00  6.283E+00
  2.244E-01  2.742E-01  0.000E+00  0.000E+00  0.000E+00  6.283E+00
  2.742E-01  3.350E-01  0.000E+00  0.000E+00  0.000E+00  6.283E+00
  3.350E-01  4.092E-01  0.000E+00  0.000E+00  0.000E+00  6.283E+00
  4.092E-01  5.000E-01  0.000E+00  0.000E+00  0.000E+00  6.283E+00
  5.000E-01  5.000E-01  0.000E+00  0.000E+00  0.000E+00  6.283E+00

  1.000E-09  1.000E-09  0.000E+00  0.000E+00  6.283E+00  6.283E+00
  1.222E-09  1.222E-09  0.000E+00  0.000E+00  6.283E+00  6.283E+00
  1.493E-09  1.493E-09  0.000E+00  0.000E+00  6.283E+00  6.283E+00
  1.824E-09  1.824E-09  0.000E+00  0.000E+00  6.283E+00  6.283E+00
  2.228E-09  2.228E-09  0.000E+00  0.000E+00  6.283E+00  6.283E+00
  2.722E-09  2.722E-09  0.000E+00  0.000E+00  6.283E+00  6.283E+00
  3.326E-09  3.326E-09  0.000E+00  0.000E+00  6.283E+00  6.283E+00
  4.064E-09  4.064E-09  0.000E+00  0.000E+00  6.283E+00  6.283E+00
  4.965E-09  4.965E-09  0.000E+00  0.000E+00  6.283E+00  6.283E+00
  6.066E-09  6.066E-09  0.000E+00  0.000E+00  6.283E+00  6.283E+00
  7.411E-09  7.411E-09  0.000E+00  0.000E+00  6.283E+00  6.283E+00
  9.055E-09  9.055E-09  0.000E+00  0.000E+00  6.283E+00  6.283E+00
  1.106E-08  1.106E-08  0.000E+00  0.000E+00  6.283E+00  6.283E+00
  1.352E-08  1.352E-08  0.000E+00  0.000E+00  6.283E+00  6.283E+00
  1.651E-08  1.651E-08  0.000E+00  0.000E+00  6.283E+00  6.283E+00
  2.018E-08  2.018E-08  0.000E+00  0.000E+00  6.283E+00  6.283E+00
  2.465E-08  2.465E-08  0.000E+00  0.000E+00  6.283E+00  6.283E+00
  3.012E-08  3.012E-08  0.000E+00  0.000E+00  6.283E+00  6.283E+00
  3.680E-08  3.680E-08  0.000E+00  0.000E+00  6.283E+00  6.283E+00
  4.496E-08  4.496E-08  0.000E+00  0.000E+00  6.283E+00  6.283E+00
  5.493E-08  5.493E-08  0.000E+00  0.000E+00  6.283E+00  6.283E+00
  6.711E-08  6.711E-08  0.000E+00  0.000E+00  6.283E+00  6.283E+00
  8.199E-08  8.199E-08  0.000E+00  0.000E+00  6.283E+00  6.283E+00
  1.002E-07  1.002E-07  0.000E+00  0.000E+00  6.283E+00  6.283E+00
  1.224E-07  1.224E-07  0.000E+00  0.000E+00  6.283E+00  6.283E+00
  1.495E-07  1.495E-07  0.000E+00  0.000E+00  6.283E+00  6.283E+00
  1.827E-07  1.827E-07  0.000E+00  0.000E+00  6.283E+00  6.283E+00
  2.232E-07  2.232E-07  0.000E+00  0.000E+00  6.283E+00  6.283E+00
  2.727E-07  2.727E-07  0.000E+00  0.000E+00  6.283E+00  6.283E+00
  3.332E-07  3.332E-07  0.000E+00  0.000E+00  6.283E+00  6.283E+00
  4.071E-07  4.071E-07  0.000E+00  0.000E+00  6.283E+00  6.283E+00
  4.974E-07  4.974E-07  0.000E+00  0.000E+00  6.283E+00  6.283E+00
  6.077E-07  6.077E-07  0.000E+00  0.000E+00  6.283E+00  6.283E+00
  7.424E-07  7.424E-07  0.000E+00  0.000E+00  6.283E+00  6.283E+00
  9.071E-07  9.071E-07  0.000E+00  0.000E+00  6.283E+00  6.283E+00
  1.108E-06  1.108E-06  0.000E+00  0.000E+00  6.283E+00  6.283E+00
  1.354E-06  1.354E-06  0.000E+00  0.000E+00  6.283E+00  6.283E+00
  1.654E-06  1.654E-06  0.000E+00  0.000E+00  6.283E+00  6.283E+00
  2.021E-06  2.021E-06  0.000E+00  0.000E+00  6.283E+00  6.283E+00
  2.469E-06  2.469E-06  0.000E+00  0.000E+00  6.283E+00  6.283E+00
  3.017E-06  3.017E-06  0.000E+00  0.000E+00  6.283E+00  6.283E+00
  3.686E-06  3.686E-06  0.000E+00  0.000E+00  6.283E+00  6.283E+00
  4.504E-06  4.504E-06  0.000E+00  0.000E+00  6.283E+00  6.283E+00
  5.502E-06  5.502E-06  0.000E+00  0.000E+00  6.283E+00  6.283E+00
  6.723E-06  6.723E-06  0.000E+00  0.000E+00  6.283E+00  6.283E+00
  8.214E-06  8.214E-06  0.000E+00  0.000E+00  6.283E+00  6.283E+00
  1.004E-05  1.004E-05  0.000E+00  0.000E+00  6.283E+00  6.283E+00
  1.226E-05  1.226E-05  0.000E+00  0.000E+00  6.283E+00  6.283E+00
  1.498E-05  1.498E-05  0.000E+00  0.000E+00  6.283E+00  6.283E+00
  1.830E-05  1.830E-05  0.000E+00  0.000E+00  6.283E+00  6.283E+00
  2.236E-05  2.236E-05  0.000E+00  0.000E+00  6.283E+00  6.283E+00
  2.732E-05  2.732E-05  0.000E+00  0.000E+00  6.283E+00  6.283E+00
  3.338E-05  3.338E-05  0.000E+00  0.000E+00  6.283E+00  6.283E+00
  4.078E-05  4.078E-05  0.000E+00  0.000E+00  6.283E+00  6.283E+00
  4.982E-05  4.982E-05  0.000E+00  0.000E+00  6.283E+00  6.283E+00
  6.087E-05  6.087E-05  0.000E+00  0.000E+00  6.283E+00  6.283E+00
  7.437E-05  7.437E-05  0.000E+00  0.000E+00  6.283E+00  6.283E+00
  9.087E-05  9.087E-05  0.000E+00  0.000E+00  6.283E+00  6.283E+00
  1.110E-04  1.110E-04  0.000E+00  0.000E+00  6.283E+00  6.283E+00
  1.356E-04  1.356E-04  0.000E+00  0.000E+00  6.283E+00  6.283E+00
  1.657E-04  1.657E-04  0.000E+00  0.000E+00  6.283E+00  6.283E+00
  2.025E-04  2.025E-04  0.000E+00  0.000E+00  6.283E+00  6.283E+00
  2.474E-04  2.474E-04  0.000E+00  0.000E+00  6.283E+00  6.283E+00
  3.022E-04  3.022E-04  0.000E+00  0.000E+00  6.283E+00  6.283E+00
  3.693E-04  3.693E-04  0.000E+00  0.000E+00  6.283E+00  6.283E+00
  4.512E-04  4.512E-04  0.000E+00  0.000E+00  6.283E+00  6.283E+00
  5.512E-04  5.512E-04  0.000E+00  0.000E+00  6.283E+00  6.283E+00
  6.735E-04  6.735E-04  0.000E+00  0.000E+00  6.283E+00  6.283E+00
  8.228E-04  8.228E-04  0.000E+00  0.000E+00  6.283E+00  6.283E+00
  1.005E-03  1.005E-03  0.000E+00  0.000E+00  6.283E+00  6.283E+00
  1.228E-03  1.228E-03  0.000E+00  0.000E+00  6.283E+00  6.283E+00
  1.501E-03  1.501E-03  0.000E+00  0.000E+00  6.283E+00  6.283E+00
  1.833E-03  1.833E-03  0.000E+00  0.000E+00  6.283E+00  6.283E+00
  2.240E-03  2.240E-03  0.000E+00  0.000E+00  6.283E+00  6.283E+00
  2.737E-03  2.737E-03  0.000E+00  0.000E+00  6.283E+00  6.283E+00
  3.344E-03  3.344E-03  0.000E+00  0.000E+00  6.283E+00  6.283E+00
  4.085E-03  4.085E-03  0.000E+00  0.000E+00  6.283E+00  6.283E+00
  4.991E-03  4.991E-03  0.000E+00  0.000E+00  6.283E+00  6.283E+00
  6.098E-03  6.098E-03  0.000E+00  0.000E+00  6.283E+00  6.283E+00
  7.450E-03  7.450E-03  0.000E+00  0.000E+00  6.283E+00  6.283E+00
  9.103E-03  9.103E-03  0.000E+00  0.000E+00  6.283E+00  6.283E+00
  1.112E-02  1.112E-02  0.000E+00  0.000E+00  6.283E+00  6.283E+00
  1.359E-02  1.359E-02  0.000E+00  0.000E+00  6.283E+00  6.283E+00
  1.660E-02  1.660E-02  0.000E+00  0.000E+00  6.283E+00  6.283E+00
  2.028E-02  2.028E-02  0.000E+00  0.000E+00  6.283E+00  6.283E+00
  2.478E-02  2.478E-02  0.000E+00  0.000E+00  6.283E+00  6.283E+00
  3.028E-02  3.028E-02  0.000E+00  0.000E+00  6.283E+00  6.283E+00
  3.699E-02  3.699E-02  0.000E+00  0.000E+00  6.283E+00  6.283E+00
  4.520E-02  4.520E-02  0.000E+00  0.000E+00  6.283E+00  6.283E+00
  5.522E-02  5.522E-02  0.000E+00  0.000E+00  6.283E+00  6.283E+00
  6.746E-02  6.746E-02  0.000E+00  0.000E+00  6.283E+00  6.283E+00
  8.243E-02  8.243E-02  0.000E+00  0.000E+00  6.283E+00  6.283E+00
  1.007E-01  1.007E-01  0.000E+00  0.000E+00  6.283E+00  6.283E+00
  1.230E-01  1.230E-01  0.000E+00  0.000E+00  6.283E+00  6.283E+00
  1.503E-01  1.503E-01  0.000E+00  0.000E+00  6.283E+00  6.283E+00
  1.837E-01  1.837E-01  0.000E+00  0.000E+00  6.283E+00  6.283E+00
  2.244E-01  2.244E-01  0.000E+00  0.000E+00  6.283E+00  6.283E+00
  2.742E-01  2.742E-01  0.000E+00  0.000E+00  6.283E+00  6.283E+00
  3.350E-01  3.350E-01  0.000E+00  0.000E+00  6.283E+00  6.283E+00
  4.092E-01  4.092E-01  0.000E+00  0.000E+00  6.283E+00  6.283E+00
  5.000E-01  5.000E-01  0.000E+00  0.000E+00  6.283E+00  6.283E+00
