 # Detector n:            1   BdxNeut   (integrated over solid angle)
 # N. of energy intervals         100
  1.000E-09  1.222E-09  5.890E+00  1.989E+01
  1.222E-09  1.493E-09  5.482E+00  4.152E+00
  1.493E-09  1.824E-09  3.984E+00  1.036E+01
  1.824E-09  2.228E-09  3.334E+00  8.047E+00
  2.228E-09  2.722E-09  3.333E+00  1.301E+01
  2.722E-09  3.326E-09  2.339E+00  1.265E+01
  3.326E-09  4.064E-09  1.716E+00  4.110E+00
  4.064E-09  4.965E-09  1.758E+00  1.142E+01
  4.965E-09  6.066E-09  1.566E+00  1.728E+01
  6.066E-09  7.411E-09  9.175E-01  1.670E+01
  7.411E-09  9.055E-09  8.229E-01  1.939E+01
  9.055E-09  1.106E-08  8.621E-01  5.146E+00
  1.106E-08  1.352E-08  9.090E-01  1.676E+01
  1.352E-08  1.651E-08  6.810E-01  1.150E+01
  1.651E-08  2.018E-08  4.378E-01  1.307E+01
  2.018E-08  2.465E-08  3.754E-01  5.647E+00
  2.465E-08  3.012E-08  3.579E-01  6.228E+00
  3.012E-08  3.680E-08  2.961E-01  1.213E+01
  3.680E-08  4.496E-08  2.619E-01  1.056E+01
  4.496E-08  5.493E-08  1.811E-01  2.148E+01
  5.493E-08  6.711E-08  1.745E-01  1.725E+01
  6.711E-08  8.199E-08  1.349E-01  5.602E+00
  8.199E-08  1.002E-07  1.147E-01  9.862E+00
  1.002E-07  1.224E-07  8.256E-02  1.281E+01
  1.224E-07  1.495E-07  8.154E-02  1.515E+01
  1.495E-07  1.827E-07  5.321E-02  7.653E+00
  1.827E-07  2.232E-07  4.611E-02  3.863E+00
  2.232E-07  2.727E-07  3.837E-02  8.900E+00
  2.727E-07  3.332E-07  3.876E-02  1.281E+01
  3.332E-07  4.071E-07  3.221E-02  8.330E+00
  4.071E-07  4.974E-07  2.080E-02  1.113E+01
  4.974E-07  6.077E-07  1.987E-02  8.081E+00
  6.077E-07  7.424E-07  1.601E-02  8.870E+00
  7.424E-07  9.071E-07  1.716E-02  1.407E+01
  9.071E-07  1.108E-06  1.333E-02  1.464E+01
  1.108E-06  1.354E-06  9.213E-03  1.584E+01
  1.354E-06  1.654E-06  8.226E-03  4.428E+00
  1.654E-06  2.021E-06  6.530E-03  5.222E+00
  2.021E-06  2.469E-06  4.788E-03  6.462E+00
  2.469E-06  3.017E-06  4.803E-03  1.435E+01
  3.017E-06  3.686E-06  5.104E-03  9.167E+00
  3.686E-06  4.504E-06  3.161E-03  7.399E+00
  4.504E-06  5.502E-06  2.940E-03  2.028E+01
  5.502E-06  6.723E-06  2.307E-03  9.506E+00
  6.723E-06  8.214E-06  1.939E-03  1.233E+01
  8.214E-06  1.004E-05  1.449E-03  9.150E+00
  1.004E-05  1.226E-05  1.401E-03  4.177E+00
  1.226E-05  1.498E-05  1.141E-03  4.975E+00
  1.498E-05  1.830E-05  9.225E-04  2.717E+00
  1.830E-05  2.236E-05  8.194E-04  1.012E+01
  2.236E-05  2.732E-05  6.588E-04  9.816E+00
  2.732E-05  3.338E-05  6.012E-04  1.044E+01
  3.338E-05  4.078E-05  5.211E-04  5.759E+00
  4.078E-05  4.982E-05  4.997E-04  1.192E+01
  4.982E-05  6.087E-05  6.412E-04  2.748E+01
  6.087E-05  7.437E-05  3.266E-04  6.342E+00
  7.437E-05  9.087E-05  3.157E-04  5.951E+00
  9.087E-05  1.110E-04  3.077E-04  8.204E+00
  1.110E-04  1.356E-04  2.428E-04  7.033E+00
  1.356E-04  1.657E-04  2.376E-04  6.234E+00
  1.657E-04  2.025E-04  2.244E-04  1.320E+01
  2.025E-04  2.474E-04  2.176E-04  9.190E+00
  2.474E-04  3.022E-04  1.981E-04  5.269E+00
  3.022E-04  3.693E-04  1.793E-04  5.741E+00
  3.693E-04  4.512E-04  1.649E-04  6.580E+00
  4.512E-04  5.512E-04  1.463E-04  4.548E+00
  5.512E-04  6.735E-04  1.399E-04  3.019E+00
  6.735E-04  8.228E-04  1.276E-04  2.907E+00
  8.228E-04  1.005E-03  1.266E-04  3.599E+00
  1.005E-03  1.228E-03  1.183E-04  4.351E+00
  1.228E-03  1.501E-03  1.095E-04  3.424E+00
  1.501E-03  1.833E-03  1.011E-04  2.549E+00
  1.833E-03  2.240E-03  9.421E-05  1.701E+00
  2.240E-03  2.737E-03  8.501E-05  1.702E+00
  2.737E-03  3.344E-03  7.731E-05  2.954E+00
  3.344E-03  4.085E-03  7.061E-05  2.881E+00
  4.085E-03  4.991E-03  6.390E-05  2.834E+00
  4.991E-03  6.098E-03  5.909E-05  3.606E+00
  6.098E-03  7.450E-03  5.516E-05  2.569E+00
  7.450E-03  9.103E-03  4.668E-05  1.929E+00
  9.103E-03  1.112E-02  4.595E-05  4.450E+00
  1.112E-02  1.359E-02  4.094E-05  2.720E+00
  1.359E-02  1.660E-02  4.014E-05  7.328E-01
  1.660E-02  2.028E-02  3.951E-05  1.868E+00
  2.028E-02  2.478E-02  3.780E-05  7.373E-01
  2.478E-02  3.028E-02  3.680E-05  2.440E+00
  3.028E-02  3.699E-02  3.632E-05  6.959E-01
  3.699E-02  4.520E-02  3.534E-05  1.096E+00
  4.520E-02  5.522E-02  3.388E-05  1.295E+00
  5.522E-02  6.746E-02  3.132E-05  8.146E-01
  6.746E-02  8.243E-02  2.708E-05  8.399E-01
  8.243E-02  1.007E-01  2.301E-05  7.591E-01
  1.007E-01  1.230E-01  1.993E-05  1.857E-01
  1.230E-01  1.503E-01  1.803E-05  6.183E-01
  1.503E-01  1.837E-01  1.616E-05  6.823E-01
  1.837E-01  2.244E-01  5.384E-04  2.720E-02
  2.244E-01  2.742E-01  0.000E+00  0.000E+00
  2.742E-01  3.350E-01  0.000E+00  0.000E+00
  3.350E-01  4.092E-01  0.000E+00  0.000E+00
  4.092E-01  5.000E-01  0.000E+00  0.000E+00


 # double differential distributions
 # number of solid angle intervals           1
 # Block n:            1     0.00000000      :   6.28318548    
  1.000E-09  1.222E-09  9.374E-01  1.989E+01  0.000E+00  6.283E+00
  1.222E-09  1.493E-09  8.725E-01  4.152E+00  0.000E+00  6.283E+00
  1.493E-09  1.824E-09  6.341E-01  1.036E+01  0.000E+00  6.283E+00
  1.824E-09  2.228E-09  5.306E-01  8.047E+00  0.000E+00  6.283E+00
  2.228E-09  2.722E-09  5.305E-01  1.301E+01  0.000E+00  6.283E+00
  2.722E-09  3.326E-09  3.723E-01  1.265E+01  0.000E+00  6.283E+00
  3.326E-09  4.064E-09  2.731E-01  4.110E+00  0.000E+00  6.283E+00
  4.064E-09  4.965E-09  2.798E-01  1.142E+01  0.000E+00  6.283E+00
  4.965E-09  6.066E-09  2.493E-01  1.728E+01  0.000E+00  6.283E+00
  6.066E-09  7.411E-09  1.460E-01  1.670E+01  0.000E+00  6.283E+00
  7.411E-09  9.055E-09  1.310E-01  1.939E+01  0.000E+00  6.283E+00
  9.055E-09  1.106E-08  1.372E-01  5.146E+00  0.000E+00  6.283E+00
  1.106E-08  1.352E-08  1.447E-01  1.676E+01  0.000E+00  6.283E+00
  1.352E-08  1.651E-08  1.084E-01  1.150E+01  0.000E+00  6.283E+00
  1.651E-08  2.018E-08  6.968E-02  1.307E+01  0.000E+00  6.283E+00
  2.018E-08  2.465E-08  5.975E-02  5.647E+00  0.000E+00  6.283E+00
  2.465E-08  3.012E-08  5.696E-02  6.228E+00  0.000E+00  6.283E+00
  3.012E-08  3.680E-08  4.713E-02  1.213E+01  0.000E+00  6.283E+00
  3.680E-08  4.496E-08  4.168E-02  1.056E+01  0.000E+00  6.283E+00
  4.496E-08  5.493E-08  2.882E-02  2.148E+01  0.000E+00  6.283E+00
  5.493E-08  6.711E-08  2.777E-02  1.725E+01  0.000E+00  6.283E+00
  6.711E-08  8.199E-08  2.146E-02  5.602E+00  0.000E+00  6.283E+00
  8.199E-08  1.002E-07  1.826E-02  9.862E+00  0.000E+00  6.283E+00
  1.002E-07  1.224E-07  1.314E-02  1.281E+01  0.000E+00  6.283E+00
  1.224E-07  1.495E-07  1.298E-02  1.515E+01  0.000E+00  6.283E+00
  1.495E-07  1.827E-07  8.468E-03  7.653E+00  0.000E+00  6.283E+00
  1.827E-07  2.232E-07  7.338E-03  3.863E+00  0.000E+00  6.283E+00
  2.232E-07  2.727E-07  6.107E-03  8.900E+00  0.000E+00  6.283E+00
  2.727E-07  3.332E-07  6.169E-03  1.281E+01  0.000E+00  6.283E+00
  3.332E-07  4.071E-07  5.126E-03  8.330E+00  0.000E+00  6.283E+00
  4.071E-07  4.974E-07  3.311E-03  1.113E+01  0.000E+00  6.283E+00
  4.974E-07  6.077E-07  3.162E-03  8.081E+00  0.000E+00  6.283E+00
  6.077E-07  7.424E-07  2.548E-03  8.870E+00  0.000E+00  6.283E+00
  7.424E-07  9.071E-07  2.731E-03  1.407E+01  0.000E+00  6.283E+00
  9.071E-07  1.108E-06  2.121E-03  1.464E+01  0.000E+00  6.283E+00
  1.108E-06  1.354E-06  1.466E-03  1.584E+01  0.000E+00  6.283E+00
  1.354E-06  1.654E-06  1.309E-03  4.428E+00  0.000E+00  6.283E+00
  1.654E-06  2.021E-06  1.039E-03  5.222E+00  0.000E+00  6.283E+00
  2.021E-06  2.469E-06  7.620E-04  6.462E+00  0.000E+00  6.283E+00
  2.469E-06  3.017E-06  7.644E-04  1.435E+01  0.000E+00  6.283E+00
  3.017E-06  3.686E-06  8.123E-04  9.167E+00  0.000E+00  6.283E+00
  3.686E-06  4.504E-06  5.030E-04  7.399E+00  0.000E+00  6.283E+00
  4.504E-06  5.502E-06  4.680E-04  2.028E+01  0.000E+00  6.283E+00
  5.502E-06  6.723E-06  3.671E-04  9.506E+00  0.000E+00  6.283E+00
  6.723E-06  8.214E-06  3.086E-04  1.233E+01  0.000E+00  6.283E+00
  8.214E-06  1.004E-05  2.307E-04  9.150E+00  0.000E+00  6.283E+00
  1.004E-05  1.226E-05  2.230E-04  4.177E+00  0.000E+00  6.283E+00
  1.226E-05  1.498E-05  1.817E-04  4.975E+00  0.000E+00  6.283E+00
  1.498E-05  1.830E-05  1.468E-04  2.717E+00  0.000E+00  6.283E+00
  1.830E-05  2.236E-05  1.304E-04  1.012E+01  0.000E+00  6.283E+00
  2.236E-05  2.732E-05  1.049E-04  9.816E+00  0.000E+00  6.283E+00
  2.732E-05  3.338E-05  9.569E-05  1.044E+01  0.000E+00  6.283E+00
  3.338E-05  4.078E-05  8.293E-05  5.759E+00  0.000E+00  6.283E+00
  4.078E-05  4.982E-05  7.953E-05  1.192E+01  0.000E+00  6.283E+00
  4.982E-05  6.087E-05  1.021E-04  2.748E+01  0.000E+00  6.283E+00
  6.087E-05  7.437E-05  5.198E-05  6.342E+00  0.000E+00  6.283E+00
  7.437E-05  9.087E-05  5.024E-05  5.951E+00  0.000E+00  6.283E+00
  9.087E-05  1.110E-04  4.897E-05  8.204E+00  0.000E+00  6.283E+00
  1.110E-04  1.356E-04  3.864E-05  7.033E+00  0.000E+00  6.283E+00
  1.356E-04  1.657E-04  3.781E-05  6.234E+00  0.000E+00  6.283E+00
  1.657E-04  2.025E-04  3.571E-05  1.320E+01  0.000E+00  6.283E+00
  2.025E-04  2.474E-04  3.464E-05  9.190E+00  0.000E+00  6.283E+00
  2.474E-04  3.022E-04  3.153E-05  5.269E+00  0.000E+00  6.283E+00
  3.022E-04  3.693E-04  2.854E-05  5.741E+00  0.000E+00  6.283E+00
  3.693E-04  4.512E-04  2.624E-05  6.580E+00  0.000E+00  6.283E+00
  4.512E-04  5.512E-04  2.328E-05  4.548E+00  0.000E+00  6.283E+00
  5.512E-04  6.735E-04  2.227E-05  3.019E+00  0.000E+00  6.283E+00
  6.735E-04  8.228E-04  2.030E-05  2.907E+00  0.000E+00  6.283E+00
  8.228E-04  1.005E-03  2.015E-05  3.599E+00  0.000E+00  6.283E+00
  1.005E-03  1.228E-03  1.882E-05  4.351E+00  0.000E+00  6.283E+00
  1.228E-03  1.501E-03  1.743E-05  3.424E+00  0.000E+00  6.283E+00
  1.501E-03  1.833E-03  1.609E-05  2.549E+00  0.000E+00  6.283E+00
  1.833E-03  2.240E-03  1.499E-05  1.701E+00  0.000E+00  6.283E+00
  2.240E-03  2.737E-03  1.353E-05  1.702E+00  0.000E+00  6.283E+00
  2.737E-03  3.344E-03  1.230E-05  2.954E+00  0.000E+00  6.283E+00
  3.344E-03  4.085E-03  1.124E-05  2.881E+00  0.000E+00  6.283E+00
  4.085E-03  4.991E-03  1.017E-05  2.834E+00  0.000E+00  6.283E+00
  4.991E-03  6.098E-03  9.405E-06  3.606E+00  0.000E+00  6.283E+00
  6.098E-03  7.450E-03  8.779E-06  2.569E+00  0.000E+00  6.283E+00
  7.450E-03  9.103E-03  7.430E-06  1.929E+00  0.000E+00  6.283E+00
  9.103E-03  1.112E-02  7.312E-06  4.450E+00  0.000E+00  6.283E+00
  1.112E-02  1.359E-02  6.517E-06  2.720E+00  0.000E+00  6.283E+00
  1.359E-02  1.660E-02  6.389E-06  7.328E-01  0.000E+00  6.283E+00
  1.660E-02  2.028E-02  6.288E-06  1.868E+00  0.000E+00  6.283E+00
  2.028E-02  2.478E-02  6.017E-06  7.373E-01  0.000E+00  6.283E+00
  2.478E-02  3.028E-02  5.856E-06  2.440E+00  0.000E+00  6.283E+00
  3.028E-02  3.699E-02  5.780E-06  6.959E-01  0.000E+00  6.283E+00
  3.699E-02  4.520E-02  5.624E-06  1.096E+00  0.000E+00  6.283E+00
  4.520E-02  5.522E-02  5.392E-06  1.295E+00  0.000E+00  6.283E+00
  5.522E-02  6.746E-02  4.984E-06  8.146E-01  0.000E+00  6.283E+00
  6.746E-02  8.243E-02  4.310E-06  8.399E-01  0.000E+00  6.283E+00
  8.243E-02  1.007E-01  3.662E-06  7.591E-01  0.000E+00  6.283E+00
  1.007E-01  1.230E-01  3.171E-06  1.857E-01  0.000E+00  6.283E+00
  1.230E-01  1.503E-01  2.869E-06  6.183E-01  0.000E+00  6.283E+00
  1.503E-01  1.837E-01  2.572E-06  6.823E-01  0.000E+00  6.283E+00
  1.837E-01  2.244E-01  8.569E-05  2.720E-02  0.000E+00  6.283E+00
  2.244E-01  2.742E-01  0.000E+00  0.000E+00  0.000E+00  6.283E+00
  2.742E-01  3.350E-01  0.000E+00  0.000E+00  0.000E+00  6.283E+00
  3.350E-01  4.092E-01  0.000E+00  0.000E+00  0.000E+00  6.283E+00
  4.092E-01  5.000E-01  0.000E+00  0.000E+00  0.000E+00  6.283E+00
  5.000E-01  5.000E-01  0.000E+00  0.000E+00  0.000E+00  6.283E+00

  1.000E-09  1.000E-09  0.000E+00  0.000E+00  6.283E+00  6.283E+00
  1.222E-09  1.222E-09  0.000E+00  0.000E+00  6.283E+00  6.283E+00
  1.493E-09  1.493E-09  0.000E+00  0.000E+00  6.283E+00  6.283E+00
  1.824E-09  1.824E-09  0.000E+00  0.000E+00  6.283E+00  6.283E+00
  2.228E-09  2.228E-09  0.000E+00  0.000E+00  6.283E+00  6.283E+00
  2.722E-09  2.722E-09  0.000E+00  0.000E+00  6.283E+00  6.283E+00
  3.326E-09  3.326E-09  0.000E+00  0.000E+00  6.283E+00  6.283E+00
  4.064E-09  4.064E-09  0.000E+00  0.000E+00  6.283E+00  6.283E+00
  4.965E-09  4.965E-09  0.000E+00  0.000E+00  6.283E+00  6.283E+00
  6.066E-09  6.066E-09  0.000E+00  0.000E+00  6.283E+00  6.283E+00
  7.411E-09  7.411E-09  0.000E+00  0.000E+00  6.283E+00  6.283E+00
  9.055E-09  9.055E-09  0.000E+00  0.000E+00  6.283E+00  6.283E+00
  1.106E-08  1.106E-08  0.000E+00  0.000E+00  6.283E+00  6.283E+00
  1.352E-08  1.352E-08  0.000E+00  0.000E+00  6.283E+00  6.283E+00
  1.651E-08  1.651E-08  0.000E+00  0.000E+00  6.283E+00  6.283E+00
  2.018E-08  2.018E-08  0.000E+00  0.000E+00  6.283E+00  6.283E+00
  2.465E-08  2.465E-08  0.000E+00  0.000E+00  6.283E+00  6.283E+00
  3.012E-08  3.012E-08  0.000E+00  0.000E+00  6.283E+00  6.283E+00
  3.680E-08  3.680E-08  0.000E+00  0.000E+00  6.283E+00  6.283E+00
  4.496E-08  4.496E-08  0.000E+00  0.000E+00  6.283E+00  6.283E+00
  5.493E-08  5.493E-08  0.000E+00  0.000E+00  6.283E+00  6.283E+00
  6.711E-08  6.711E-08  0.000E+00  0.000E+00  6.283E+00  6.283E+00
  8.199E-08  8.199E-08  0.000E+00  0.000E+00  6.283E+00  6.283E+00
  1.002E-07  1.002E-07  0.000E+00  0.000E+00  6.283E+00  6.283E+00
  1.224E-07  1.224E-07  0.000E+00  0.000E+00  6.283E+00  6.283E+00
  1.495E-07  1.495E-07  0.000E+00  0.000E+00  6.283E+00  6.283E+00
  1.827E-07  1.827E-07  0.000E+00  0.000E+00  6.283E+00  6.283E+00
  2.232E-07  2.232E-07  0.000E+00  0.000E+00  6.283E+00  6.283E+00
  2.727E-07  2.727E-07  0.000E+00  0.000E+00  6.283E+00  6.283E+00
  3.332E-07  3.332E-07  0.000E+00  0.000E+00  6.283E+00  6.283E+00
  4.071E-07  4.071E-07  0.000E+00  0.000E+00  6.283E+00  6.283E+00
  4.974E-07  4.974E-07  0.000E+00  0.000E+00  6.283E+00  6.283E+00
  6.077E-07  6.077E-07  0.000E+00  0.000E+00  6.283E+00  6.283E+00
  7.424E-07  7.424E-07  0.000E+00  0.000E+00  6.283E+00  6.283E+00
  9.071E-07  9.071E-07  0.000E+00  0.000E+00  6.283E+00  6.283E+00
  1.108E-06  1.108E-06  0.000E+00  0.000E+00  6.283E+00  6.283E+00
  1.354E-06  1.354E-06  0.000E+00  0.000E+00  6.283E+00  6.283E+00
  1.654E-06  1.654E-06  0.000E+00  0.000E+00  6.283E+00  6.283E+00
  2.021E-06  2.021E-06  0.000E+00  0.000E+00  6.283E+00  6.283E+00
  2.469E-06  2.469E-06  0.000E+00  0.000E+00  6.283E+00  6.283E+00
  3.017E-06  3.017E-06  0.000E+00  0.000E+00  6.283E+00  6.283E+00
  3.686E-06  3.686E-06  0.000E+00  0.000E+00  6.283E+00  6.283E+00
  4.504E-06  4.504E-06  0.000E+00  0.000E+00  6.283E+00  6.283E+00
  5.502E-06  5.502E-06  0.000E+00  0.000E+00  6.283E+00  6.283E+00
  6.723E-06  6.723E-06  0.000E+00  0.000E+00  6.283E+00  6.283E+00
  8.214E-06  8.214E-06  0.000E+00  0.000E+00  6.283E+00  6.283E+00
  1.004E-05  1.004E-05  0.000E+00  0.000E+00  6.283E+00  6.283E+00
  1.226E-05  1.226E-05  0.000E+00  0.000E+00  6.283E+00  6.283E+00
  1.498E-05  1.498E-05  0.000E+00  0.000E+00  6.283E+00  6.283E+00
  1.830E-05  1.830E-05  0.000E+00  0.000E+00  6.283E+00  6.283E+00
  2.236E-05  2.236E-05  0.000E+00  0.000E+00  6.283E+00  6.283E+00
  2.732E-05  2.732E-05  0.000E+00  0.000E+00  6.283E+00  6.283E+00
  3.338E-05  3.338E-05  0.000E+00  0.000E+00  6.283E+00  6.283E+00
  4.078E-05  4.078E-05  0.000E+00  0.000E+00  6.283E+00  6.283E+00
  4.982E-05  4.982E-05  0.000E+00  0.000E+00  6.283E+00  6.283E+00
  6.087E-05  6.087E-05  0.000E+00  0.000E+00  6.283E+00  6.283E+00
  7.437E-05  7.437E-05  0.000E+00  0.000E+00  6.283E+00  6.283E+00
  9.087E-05  9.087E-05  0.000E+00  0.000E+00  6.283E+00  6.283E+00
  1.110E-04  1.110E-04  0.000E+00  0.000E+00  6.283E+00  6.283E+00
  1.356E-04  1.356E-04  0.000E+00  0.000E+00  6.283E+00  6.283E+00
  1.657E-04  1.657E-04  0.000E+00  0.000E+00  6.283E+00  6.283E+00
  2.025E-04  2.025E-04  0.000E+00  0.000E+00  6.283E+00  6.283E+00
  2.474E-04  2.474E-04  0.000E+00  0.000E+00  6.283E+00  6.283E+00
  3.022E-04  3.022E-04  0.000E+00  0.000E+00  6.283E+00  6.283E+00
  3.693E-04  3.693E-04  0.000E+00  0.000E+00  6.283E+00  6.283E+00
  4.512E-04  4.512E-04  0.000E+00  0.000E+00  6.283E+00  6.283E+00
  5.512E-04  5.512E-04  0.000E+00  0.000E+00  6.283E+00  6.283E+00
  6.735E-04  6.735E-04  0.000E+00  0.000E+00  6.283E+00  6.283E+00
  8.228E-04  8.228E-04  0.000E+00  0.000E+00  6.283E+00  6.283E+00
  1.005E-03  1.005E-03  0.000E+00  0.000E+00  6.283E+00  6.283E+00
  1.228E-03  1.228E-03  0.000E+00  0.000E+00  6.283E+00  6.283E+00
  1.501E-03  1.501E-03  0.000E+00  0.000E+00  6.283E+00  6.283E+00
  1.833E-03  1.833E-03  0.000E+00  0.000E+00  6.283E+00  6.283E+00
  2.240E-03  2.240E-03  0.000E+00  0.000E+00  6.283E+00  6.283E+00
  2.737E-03  2.737E-03  0.000E+00  0.000E+00  6.283E+00  6.283E+00
  3.344E-03  3.344E-03  0.000E+00  0.000E+00  6.283E+00  6.283E+00
  4.085E-03  4.085E-03  0.000E+00  0.000E+00  6.283E+00  6.283E+00
  4.991E-03  4.991E-03  0.000E+00  0.000E+00  6.283E+00  6.283E+00
  6.098E-03  6.098E-03  0.000E+00  0.000E+00  6.283E+00  6.283E+00
  7.450E-03  7.450E-03  0.000E+00  0.000E+00  6.283E+00  6.283E+00
  9.103E-03  9.103E-03  0.000E+00  0.000E+00  6.283E+00  6.283E+00
  1.112E-02  1.112E-02  0.000E+00  0.000E+00  6.283E+00  6.283E+00
  1.359E-02  1.359E-02  0.000E+00  0.000E+00  6.283E+00  6.283E+00
  1.660E-02  1.660E-02  0.000E+00  0.000E+00  6.283E+00  6.283E+00
  2.028E-02  2.028E-02  0.000E+00  0.000E+00  6.283E+00  6.283E+00
  2.478E-02  2.478E-02  0.000E+00  0.000E+00  6.283E+00  6.283E+00
  3.028E-02  3.028E-02  0.000E+00  0.000E+00  6.283E+00  6.283E+00
  3.699E-02  3.699E-02  0.000E+00  0.000E+00  6.283E+00  6.283E+00
  4.520E-02  4.520E-02  0.000E+00  0.000E+00  6.283E+00  6.283E+00
  5.522E-02  5.522E-02  0.000E+00  0.000E+00  6.283E+00  6.283E+00
  6.746E-02  6.746E-02  0.000E+00  0.000E+00  6.283E+00  6.283E+00
  8.243E-02  8.243E-02  0.000E+00  0.000E+00  6.283E+00  6.283E+00
  1.007E-01  1.007E-01  0.000E+00  0.000E+00  6.283E+00  6.283E+00
  1.230E-01  1.230E-01  0.000E+00  0.000E+00  6.283E+00  6.283E+00
  1.503E-01  1.503E-01  0.000E+00  0.000E+00  6.283E+00  6.283E+00
  1.837E-01  1.837E-01  0.000E+00  0.000E+00  6.283E+00  6.283E+00
  2.244E-01  2.244E-01  0.000E+00  0.000E+00  6.283E+00  6.283E+00
  2.742E-01  2.742E-01  0.000E+00  0.000E+00  6.283E+00  6.283E+00
  3.350E-01  3.350E-01  0.000E+00  0.000E+00  6.283E+00  6.283E+00
  4.092E-01  4.092E-01  0.000E+00  0.000E+00  6.283E+00  6.283E+00
  5.000E-01  5.000E-01  0.000E+00  0.000E+00  6.283E+00  6.283E+00
