 # Detector n:            1   BdxNeut   (integrated over solid angle)
 # N. of energy intervals         100
  1.000E-09  1.222E-09  5.985E+01  2.838E+00
  1.222E-09  1.493E-09  5.187E+01  5.880E+00
  1.493E-09  1.824E-09  4.311E+01  4.270E+00
  1.824E-09  2.228E-09  3.447E+01  4.975E+00
  2.228E-09  2.722E-09  2.710E+01  5.224E+00
  2.722E-09  3.326E-09  2.409E+01  2.639E+00
  3.326E-09  4.064E-09  2.160E+01  4.038E+00
  4.064E-09  4.965E-09  1.725E+01  3.650E+00
  4.965E-09  6.066E-09  1.738E+01  1.224E+01
  6.066E-09  7.411E-09  1.254E+01  4.490E+00
  7.411E-09  9.055E-09  9.587E+00  2.617E+00
  9.055E-09  1.106E-08  8.918E+00  5.101E+00
  1.106E-08  1.352E-08  7.320E+00  4.084E+00
  1.352E-08  1.651E-08  5.929E+00  4.362E+00
  1.651E-08  2.018E-08  5.100E+00  6.690E+00
  2.018E-08  2.465E-08  3.993E+00  4.627E+00
  2.465E-08  3.012E-08  3.349E+00  2.261E+00
  3.012E-08  3.680E-08  2.628E+00  4.505E+00
  3.680E-08  4.496E-08  2.285E+00  3.496E+00
  4.496E-08  5.493E-08  2.052E+00  3.004E+00
  5.493E-08  6.711E-08  1.576E+00  3.660E+00
  6.711E-08  8.199E-08  1.257E+00  2.522E+00
  8.199E-08  1.002E-07  1.102E+00  5.582E+00
  1.002E-07  1.224E-07  9.171E-01  2.600E+00
  1.224E-07  1.495E-07  8.044E-01  1.555E+00
  1.495E-07  1.827E-07  5.952E-01  3.156E+00
  1.827E-07  2.232E-07  5.394E-01  3.319E+00
  2.232E-07  2.727E-07  4.370E-01  2.353E+00
  2.727E-07  3.332E-07  3.555E-01  2.009E+00
  3.332E-07  4.071E-07  3.074E-01  4.127E+00
  4.071E-07  4.974E-07  2.561E-01  5.518E+00
  4.974E-07  6.077E-07  1.990E-01  3.451E+00
  6.077E-07  7.424E-07  1.619E-01  4.990E+00
  7.424E-07  9.071E-07  1.408E-01  3.750E+00
  9.071E-07  1.108E-06  1.109E-01  7.109E-01
  1.108E-06  1.354E-06  9.767E-02  3.853E+00
  1.354E-06  1.654E-06  8.546E-02  2.810E+00
  1.654E-06  2.021E-06  6.751E-02  1.313E+00
  2.021E-06  2.469E-06  5.720E-02  3.211E+00
  2.469E-06  3.017E-06  4.178E-02  2.719E+00
  3.017E-06  3.686E-06  3.723E-02  1.060E+00
  3.686E-06  4.504E-06  3.441E-02  3.559E+00
  4.504E-06  5.502E-06  2.653E-02  1.827E+00
  5.502E-06  6.723E-06  2.154E-02  2.658E+00
  6.723E-06  8.214E-06  1.875E-02  2.515E+00
  8.214E-06  1.004E-05  1.616E-02  3.247E+00
  1.004E-05  1.226E-05  1.270E-02  4.181E+00
  1.226E-05  1.498E-05  1.108E-02  9.065E-01
  1.498E-05  1.830E-05  9.360E-03  2.188E+00
  1.830E-05  2.236E-05  7.831E-03  3.052E+00
  2.236E-05  2.732E-05  6.434E-03  2.111E+00
  2.732E-05  3.338E-05  6.161E-03  2.320E+00
  3.338E-05  4.078E-05  4.871E-03  2.946E+00
  4.078E-05  4.982E-05  4.512E-03  6.918E-01
  4.982E-05  6.087E-05  3.890E-03  2.236E+00
  6.087E-05  7.437E-05  3.477E-03  2.988E+00
  7.437E-05  9.087E-05  3.049E-03  1.659E+00
  9.087E-05  1.110E-04  2.854E-03  3.366E+00
  1.110E-04  1.356E-04  2.530E-03  2.520E+00
  1.356E-04  1.657E-04  2.231E-03  1.485E+00
  1.657E-04  2.025E-04  2.128E-03  1.607E+00
  2.025E-04  2.474E-04  1.959E-03  3.647E+00
  2.474E-04  3.022E-04  1.780E-03  2.289E+00
  3.022E-04  3.693E-04  1.676E-03  2.467E+00
  3.693E-04  4.512E-04  1.517E-03  8.141E-01
  4.512E-04  5.512E-04  1.474E-03  1.344E+00
  5.512E-04  6.735E-04  1.388E-03  2.240E+00
  6.735E-04  8.228E-04  1.324E-03  1.571E+00
  8.228E-04  1.005E-03  1.261E-03  8.334E-01
  1.005E-03  1.228E-03  1.204E-03  8.290E-01
  1.228E-03  1.501E-03  1.155E-03  7.805E-01
  1.501E-03  1.833E-03  1.112E-03  9.649E-01
  1.833E-03  2.240E-03  1.079E-03  6.934E-01
  2.240E-03  2.737E-03  1.041E-03  1.069E+00
  2.737E-03  3.344E-03  9.640E-04  5.331E-01
  3.344E-03  4.085E-03  9.352E-04  6.791E-01
  4.085E-03  4.991E-03  1.031E-03  2.399E-01
  4.991E-03  6.098E-03  1.026E-03  4.684E-01
  6.098E-03  7.450E-03  7.823E-04  3.243E-01
  7.450E-03  9.103E-03  7.443E-04  5.658E-01
  9.103E-03  1.112E-02  3.093E-03  1.099E-01
  1.112E-02  1.359E-02  0.000E+00  0.000E+00
  1.359E-02  1.660E-02  0.000E+00  0.000E+00
  1.660E-02  2.028E-02  0.000E+00  0.000E+00
  2.028E-02  2.478E-02  0.000E+00  0.000E+00
  2.478E-02  3.028E-02  0.000E+00  0.000E+00
  3.028E-02  3.699E-02  0.000E+00  0.000E+00
  3.699E-02  4.520E-02  0.000E+00  0.000E+00
  4.520E-02  5.522E-02  0.000E+00  0.000E+00
  5.522E-02  6.746E-02  0.000E+00  0.000E+00
  6.746E-02  8.243E-02  0.000E+00  0.000E+00
  8.243E-02  1.007E-01  0.000E+00  0.000E+00
  1.007E-01  1.230E-01  0.000E+00  0.000E+00
  1.230E-01  1.503E-01  0.000E+00  0.000E+00
  1.503E-01  1.837E-01  0.000E+00  0.000E+00
  1.837E-01  2.244E-01  0.000E+00  0.000E+00
  2.244E-01  2.742E-01  0.000E+00  0.000E+00
  2.742E-01  3.350E-01  0.000E+00  0.000E+00
  3.350E-01  4.092E-01  0.000E+00  0.000E+00
  4.092E-01  5.000E-01  0.000E+00  0.000E+00


 # double differential distributions
 # number of solid angle intervals           1
 # Block n:            1     0.00000000      :   6.28318548    
  1.000E-09  1.222E-09  9.525E+00  2.838E+00  0.000E+00  6.283E+00
  1.222E-09  1.493E-09  8.256E+00  5.880E+00  0.000E+00  6.283E+00
  1.493E-09  1.824E-09  6.861E+00  4.270E+00  0.000E+00  6.283E+00
  1.824E-09  2.228E-09  5.486E+00  4.975E+00  0.000E+00  6.283E+00
  2.228E-09  2.722E-09  4.313E+00  5.224E+00  0.000E+00  6.283E+00
  2.722E-09  3.326E-09  3.834E+00  2.639E+00  0.000E+00  6.283E+00
  3.326E-09  4.064E-09  3.437E+00  4.038E+00  0.000E+00  6.283E+00
  4.064E-09  4.965E-09  2.745E+00  3.650E+00  0.000E+00  6.283E+00
  4.965E-09  6.066E-09  2.767E+00  1.224E+01  0.000E+00  6.283E+00
  6.066E-09  7.411E-09  1.996E+00  4.490E+00  0.000E+00  6.283E+00
  7.411E-09  9.055E-09  1.526E+00  2.617E+00  0.000E+00  6.283E+00
  9.055E-09  1.106E-08  1.419E+00  5.101E+00  0.000E+00  6.283E+00
  1.106E-08  1.352E-08  1.165E+00  4.084E+00  0.000E+00  6.283E+00
  1.352E-08  1.651E-08  9.436E-01  4.362E+00  0.000E+00  6.283E+00
  1.651E-08  2.018E-08  8.117E-01  6.690E+00  0.000E+00  6.283E+00
  2.018E-08  2.465E-08  6.356E-01  4.627E+00  0.000E+00  6.283E+00
  2.465E-08  3.012E-08  5.330E-01  2.261E+00  0.000E+00  6.283E+00
  3.012E-08  3.680E-08  4.182E-01  4.505E+00  0.000E+00  6.283E+00
  3.680E-08  4.496E-08  3.636E-01  3.496E+00  0.000E+00  6.283E+00
  4.496E-08  5.493E-08  3.265E-01  3.004E+00  0.000E+00  6.283E+00
  5.493E-08  6.711E-08  2.509E-01  3.660E+00  0.000E+00  6.283E+00
  6.711E-08  8.199E-08  2.001E-01  2.522E+00  0.000E+00  6.283E+00
  8.199E-08  1.002E-07  1.754E-01  5.582E+00  0.000E+00  6.283E+00
  1.002E-07  1.224E-07  1.460E-01  2.600E+00  0.000E+00  6.283E+00
  1.224E-07  1.495E-07  1.280E-01  1.555E+00  0.000E+00  6.283E+00
  1.495E-07  1.827E-07  9.473E-02  3.156E+00  0.000E+00  6.283E+00
  1.827E-07  2.232E-07  8.585E-02  3.319E+00  0.000E+00  6.283E+00
  2.232E-07  2.727E-07  6.955E-02  2.353E+00  0.000E+00  6.283E+00
  2.727E-07  3.332E-07  5.658E-02  2.009E+00  0.000E+00  6.283E+00
  3.332E-07  4.071E-07  4.892E-02  4.127E+00  0.000E+00  6.283E+00
  4.071E-07  4.974E-07  4.076E-02  5.518E+00  0.000E+00  6.283E+00
  4.974E-07  6.077E-07  3.167E-02  3.451E+00  0.000E+00  6.283E+00
  6.077E-07  7.424E-07  2.576E-02  4.990E+00  0.000E+00  6.283E+00
  7.424E-07  9.071E-07  2.241E-02  3.750E+00  0.000E+00  6.283E+00
  9.071E-07  1.108E-06  1.765E-02  7.109E-01  0.000E+00  6.283E+00
  1.108E-06  1.354E-06  1.554E-02  3.853E+00  0.000E+00  6.283E+00
  1.354E-06  1.654E-06  1.360E-02  2.810E+00  0.000E+00  6.283E+00
  1.654E-06  2.021E-06  1.075E-02  1.313E+00  0.000E+00  6.283E+00
  2.021E-06  2.469E-06  9.103E-03  3.211E+00  0.000E+00  6.283E+00
  2.469E-06  3.017E-06  6.649E-03  2.719E+00  0.000E+00  6.283E+00
  3.017E-06  3.686E-06  5.925E-03  1.060E+00  0.000E+00  6.283E+00
  3.686E-06  4.504E-06  5.477E-03  3.559E+00  0.000E+00  6.283E+00
  4.504E-06  5.502E-06  4.223E-03  1.827E+00  0.000E+00  6.283E+00
  5.502E-06  6.723E-06  3.429E-03  2.658E+00  0.000E+00  6.283E+00
  6.723E-06  8.214E-06  2.984E-03  2.515E+00  0.000E+00  6.283E+00
  8.214E-06  1.004E-05  2.572E-03  3.247E+00  0.000E+00  6.283E+00
  1.004E-05  1.226E-05  2.021E-03  4.181E+00  0.000E+00  6.283E+00
  1.226E-05  1.498E-05  1.763E-03  9.065E-01  0.000E+00  6.283E+00
  1.498E-05  1.830E-05  1.490E-03  2.188E+00  0.000E+00  6.283E+00
  1.830E-05  2.236E-05  1.246E-03  3.052E+00  0.000E+00  6.283E+00
  2.236E-05  2.732E-05  1.024E-03  2.111E+00  0.000E+00  6.283E+00
  2.732E-05  3.338E-05  9.805E-04  2.320E+00  0.000E+00  6.283E+00
  3.338E-05  4.078E-05  7.753E-04  2.946E+00  0.000E+00  6.283E+00
  4.078E-05  4.982E-05  7.181E-04  6.918E-01  0.000E+00  6.283E+00
  4.982E-05  6.087E-05  6.191E-04  2.236E+00  0.000E+00  6.283E+00
  6.087E-05  7.437E-05  5.534E-04  2.988E+00  0.000E+00  6.283E+00
  7.437E-05  9.087E-05  4.853E-04  1.659E+00  0.000E+00  6.283E+00
  9.087E-05  1.110E-04  4.542E-04  3.366E+00  0.000E+00  6.283E+00
  1.110E-04  1.356E-04  4.027E-04  2.520E+00  0.000E+00  6.283E+00
  1.356E-04  1.657E-04  3.551E-04  1.485E+00  0.000E+00  6.283E+00
  1.657E-04  2.025E-04  3.387E-04  1.607E+00  0.000E+00  6.283E+00
  2.025E-04  2.474E-04  3.118E-04  3.647E+00  0.000E+00  6.283E+00
  2.474E-04  3.022E-04  2.833E-04  2.289E+00  0.000E+00  6.283E+00
  3.022E-04  3.693E-04  2.667E-04  2.467E+00  0.000E+00  6.283E+00
  3.693E-04  4.512E-04  2.414E-04  8.141E-01  0.000E+00  6.283E+00
  4.512E-04  5.512E-04  2.345E-04  1.344E+00  0.000E+00  6.283E+00
  5.512E-04  6.735E-04  2.210E-04  2.240E+00  0.000E+00  6.283E+00
  6.735E-04  8.228E-04  2.107E-04  1.571E+00  0.000E+00  6.283E+00
  8.228E-04  1.005E-03  2.008E-04  8.334E-01  0.000E+00  6.283E+00
  1.005E-03  1.228E-03  1.917E-04  8.290E-01  0.000E+00  6.283E+00
  1.228E-03  1.501E-03  1.838E-04  7.805E-01  0.000E+00  6.283E+00
  1.501E-03  1.833E-03  1.770E-04  9.649E-01  0.000E+00  6.283E+00
  1.833E-03  2.240E-03  1.718E-04  6.934E-01  0.000E+00  6.283E+00
  2.240E-03  2.737E-03  1.656E-04  1.069E+00  0.000E+00  6.283E+00
  2.737E-03  3.344E-03  1.534E-04  5.331E-01  0.000E+00  6.283E+00
  3.344E-03  4.085E-03  1.488E-04  6.791E-01  0.000E+00  6.283E+00
  4.085E-03  4.991E-03  1.641E-04  2.399E-01  0.000E+00  6.283E+00
  4.991E-03  6.098E-03  1.633E-04  4.684E-01  0.000E+00  6.283E+00
  6.098E-03  7.450E-03  1.245E-04  3.243E-01  0.000E+00  6.283E+00
  7.450E-03  9.103E-03  1.185E-04  5.658E-01  0.000E+00  6.283E+00
  9.103E-03  1.112E-02  4.922E-04  1.099E-01  0.000E+00  6.283E+00
  1.112E-02  1.359E-02  0.000E+00  0.000E+00  0.000E+00  6.283E+00
  1.359E-02  1.660E-02  0.000E+00  0.000E+00  0.000E+00  6.283E+00
  1.660E-02  2.028E-02  0.000E+00  0.000E+00  0.000E+00  6.283E+00
  2.028E-02  2.478E-02  0.000E+00  0.000E+00  0.000E+00  6.283E+00
  2.478E-02  3.028E-02  0.000E+00  0.000E+00  0.000E+00  6.283E+00
  3.028E-02  3.699E-02  0.000E+00  0.000E+00  0.000E+00  6.283E+00
  3.699E-02  4.520E-02  0.000E+00  0.000E+00  0.000E+00  6.283E+00
  4.520E-02  5.522E-02  0.000E+00  0.000E+00  0.000E+00  6.283E+00
  5.522E-02  6.746E-02  0.000E+00  0.000E+00  0.000E+00  6.283E+00
  6.746E-02  8.243E-02  0.000E+00  0.000E+00  0.000E+00  6.283E+00
  8.243E-02  1.007E-01  0.000E+00  0.000E+00  0.000E+00  6.283E+00
  1.007E-01  1.230E-01  0.000E+00  0.000E+00  0.000E+00  6.283E+00
  1.230E-01  1.503E-01  0.000E+00  0.000E+00  0.000E+00  6.283E+00
  1.503E-01  1.837E-01  0.000E+00  0.000E+00  0.000E+00  6.283E+00
  1.837E-01  2.244E-01  0.000E+00  0.000E+00  0.000E+00  6.283E+00
  2.244E-01  2.742E-01  0.000E+00  0.000E+00  0.000E+00  6.283E+00
  2.742E-01  3.350E-01  0.000E+00  0.000E+00  0.000E+00  6.283E+00
  3.350E-01  4.092E-01  0.000E+00  0.000E+00  0.000E+00  6.283E+00
  4.092E-01  5.000E-01  0.000E+00  0.000E+00  0.000E+00  6.283E+00
  5.000E-01  5.000E-01  0.000E+00  0.000E+00  0.000E+00  6.283E+00

  1.000E-09  1.000E-09  0.000E+00  0.000E+00  6.283E+00  6.283E+00
  1.222E-09  1.222E-09  0.000E+00  0.000E+00  6.283E+00  6.283E+00
  1.493E-09  1.493E-09  0.000E+00  0.000E+00  6.283E+00  6.283E+00
  1.824E-09  1.824E-09  0.000E+00  0.000E+00  6.283E+00  6.283E+00
  2.228E-09  2.228E-09  0.000E+00  0.000E+00  6.283E+00  6.283E+00
  2.722E-09  2.722E-09  0.000E+00  0.000E+00  6.283E+00  6.283E+00
  3.326E-09  3.326E-09  0.000E+00  0.000E+00  6.283E+00  6.283E+00
  4.064E-09  4.064E-09  0.000E+00  0.000E+00  6.283E+00  6.283E+00
  4.965E-09  4.965E-09  0.000E+00  0.000E+00  6.283E+00  6.283E+00
  6.066E-09  6.066E-09  0.000E+00  0.000E+00  6.283E+00  6.283E+00
  7.411E-09  7.411E-09  0.000E+00  0.000E+00  6.283E+00  6.283E+00
  9.055E-09  9.055E-09  0.000E+00  0.000E+00  6.283E+00  6.283E+00
  1.106E-08  1.106E-08  0.000E+00  0.000E+00  6.283E+00  6.283E+00
  1.352E-08  1.352E-08  0.000E+00  0.000E+00  6.283E+00  6.283E+00
  1.651E-08  1.651E-08  0.000E+00  0.000E+00  6.283E+00  6.283E+00
  2.018E-08  2.018E-08  0.000E+00  0.000E+00  6.283E+00  6.283E+00
  2.465E-08  2.465E-08  0.000E+00  0.000E+00  6.283E+00  6.283E+00
  3.012E-08  3.012E-08  0.000E+00  0.000E+00  6.283E+00  6.283E+00
  3.680E-08  3.680E-08  0.000E+00  0.000E+00  6.283E+00  6.283E+00
  4.496E-08  4.496E-08  0.000E+00  0.000E+00  6.283E+00  6.283E+00
  5.493E-08  5.493E-08  0.000E+00  0.000E+00  6.283E+00  6.283E+00
  6.711E-08  6.711E-08  0.000E+00  0.000E+00  6.283E+00  6.283E+00
  8.199E-08  8.199E-08  0.000E+00  0.000E+00  6.283E+00  6.283E+00
  1.002E-07  1.002E-07  0.000E+00  0.000E+00  6.283E+00  6.283E+00
  1.224E-07  1.224E-07  0.000E+00  0.000E+00  6.283E+00  6.283E+00
  1.495E-07  1.495E-07  0.000E+00  0.000E+00  6.283E+00  6.283E+00
  1.827E-07  1.827E-07  0.000E+00  0.000E+00  6.283E+00  6.283E+00
  2.232E-07  2.232E-07  0.000E+00  0.000E+00  6.283E+00  6.283E+00
  2.727E-07  2.727E-07  0.000E+00  0.000E+00  6.283E+00  6.283E+00
  3.332E-07  3.332E-07  0.000E+00  0.000E+00  6.283E+00  6.283E+00
  4.071E-07  4.071E-07  0.000E+00  0.000E+00  6.283E+00  6.283E+00
  4.974E-07  4.974E-07  0.000E+00  0.000E+00  6.283E+00  6.283E+00
  6.077E-07  6.077E-07  0.000E+00  0.000E+00  6.283E+00  6.283E+00
  7.424E-07  7.424E-07  0.000E+00  0.000E+00  6.283E+00  6.283E+00
  9.071E-07  9.071E-07  0.000E+00  0.000E+00  6.283E+00  6.283E+00
  1.108E-06  1.108E-06  0.000E+00  0.000E+00  6.283E+00  6.283E+00
  1.354E-06  1.354E-06  0.000E+00  0.000E+00  6.283E+00  6.283E+00
  1.654E-06  1.654E-06  0.000E+00  0.000E+00  6.283E+00  6.283E+00
  2.021E-06  2.021E-06  0.000E+00  0.000E+00  6.283E+00  6.283E+00
  2.469E-06  2.469E-06  0.000E+00  0.000E+00  6.283E+00  6.283E+00
  3.017E-06  3.017E-06  0.000E+00  0.000E+00  6.283E+00  6.283E+00
  3.686E-06  3.686E-06  0.000E+00  0.000E+00  6.283E+00  6.283E+00
  4.504E-06  4.504E-06  0.000E+00  0.000E+00  6.283E+00  6.283E+00
  5.502E-06  5.502E-06  0.000E+00  0.000E+00  6.283E+00  6.283E+00
  6.723E-06  6.723E-06  0.000E+00  0.000E+00  6.283E+00  6.283E+00
  8.214E-06  8.214E-06  0.000E+00  0.000E+00  6.283E+00  6.283E+00
  1.004E-05  1.004E-05  0.000E+00  0.000E+00  6.283E+00  6.283E+00
  1.226E-05  1.226E-05  0.000E+00  0.000E+00  6.283E+00  6.283E+00
  1.498E-05  1.498E-05  0.000E+00  0.000E+00  6.283E+00  6.283E+00
  1.830E-05  1.830E-05  0.000E+00  0.000E+00  6.283E+00  6.283E+00
  2.236E-05  2.236E-05  0.000E+00  0.000E+00  6.283E+00  6.283E+00
  2.732E-05  2.732E-05  0.000E+00  0.000E+00  6.283E+00  6.283E+00
  3.338E-05  3.338E-05  0.000E+00  0.000E+00  6.283E+00  6.283E+00
  4.078E-05  4.078E-05  0.000E+00  0.000E+00  6.283E+00  6.283E+00
  4.982E-05  4.982E-05  0.000E+00  0.000E+00  6.283E+00  6.283E+00
  6.087E-05  6.087E-05  0.000E+00  0.000E+00  6.283E+00  6.283E+00
  7.437E-05  7.437E-05  0.000E+00  0.000E+00  6.283E+00  6.283E+00
  9.087E-05  9.087E-05  0.000E+00  0.000E+00  6.283E+00  6.283E+00
  1.110E-04  1.110E-04  0.000E+00  0.000E+00  6.283E+00  6.283E+00
  1.356E-04  1.356E-04  0.000E+00  0.000E+00  6.283E+00  6.283E+00
  1.657E-04  1.657E-04  0.000E+00  0.000E+00  6.283E+00  6.283E+00
  2.025E-04  2.025E-04  0.000E+00  0.000E+00  6.283E+00  6.283E+00
  2.474E-04  2.474E-04  0.000E+00  0.000E+00  6.283E+00  6.283E+00
  3.022E-04  3.022E-04  0.000E+00  0.000E+00  6.283E+00  6.283E+00
  3.693E-04  3.693E-04  0.000E+00  0.000E+00  6.283E+00  6.283E+00
  4.512E-04  4.512E-04  0.000E+00  0.000E+00  6.283E+00  6.283E+00
  5.512E-04  5.512E-04  0.000E+00  0.000E+00  6.283E+00  6.283E+00
  6.735E-04  6.735E-04  0.000E+00  0.000E+00  6.283E+00  6.283E+00
  8.228E-04  8.228E-04  0.000E+00  0.000E+00  6.283E+00  6.283E+00
  1.005E-03  1.005E-03  0.000E+00  0.000E+00  6.283E+00  6.283E+00
  1.228E-03  1.228E-03  0.000E+00  0.000E+00  6.283E+00  6.283E+00
  1.501E-03  1.501E-03  0.000E+00  0.000E+00  6.283E+00  6.283E+00
  1.833E-03  1.833E-03  0.000E+00  0.000E+00  6.283E+00  6.283E+00
  2.240E-03  2.240E-03  0.000E+00  0.000E+00  6.283E+00  6.283E+00
  2.737E-03  2.737E-03  0.000E+00  0.000E+00  6.283E+00  6.283E+00
  3.344E-03  3.344E-03  0.000E+00  0.000E+00  6.283E+00  6.283E+00
  4.085E-03  4.085E-03  0.000E+00  0.000E+00  6.283E+00  6.283E+00
  4.991E-03  4.991E-03  0.000E+00  0.000E+00  6.283E+00  6.283E+00
  6.098E-03  6.098E-03  0.000E+00  0.000E+00  6.283E+00  6.283E+00
  7.450E-03  7.450E-03  0.000E+00  0.000E+00  6.283E+00  6.283E+00
  9.103E-03  9.103E-03  0.000E+00  0.000E+00  6.283E+00  6.283E+00
  1.112E-02  1.112E-02  0.000E+00  0.000E+00  6.283E+00  6.283E+00
  1.359E-02  1.359E-02  0.000E+00  0.000E+00  6.283E+00  6.283E+00
  1.660E-02  1.660E-02  0.000E+00  0.000E+00  6.283E+00  6.283E+00
  2.028E-02  2.028E-02  0.000E+00  0.000E+00  6.283E+00  6.283E+00
  2.478E-02  2.478E-02  0.000E+00  0.000E+00  6.283E+00  6.283E+00
  3.028E-02  3.028E-02  0.000E+00  0.000E+00  6.283E+00  6.283E+00
  3.699E-02  3.699E-02  0.000E+00  0.000E+00  6.283E+00  6.283E+00
  4.520E-02  4.520E-02  0.000E+00  0.000E+00  6.283E+00  6.283E+00
  5.522E-02  5.522E-02  0.000E+00  0.000E+00  6.283E+00  6.283E+00
  6.746E-02  6.746E-02  0.000E+00  0.000E+00  6.283E+00  6.283E+00
  8.243E-02  8.243E-02  0.000E+00  0.000E+00  6.283E+00  6.283E+00
  1.007E-01  1.007E-01  0.000E+00  0.000E+00  6.283E+00  6.283E+00
  1.230E-01  1.230E-01  0.000E+00  0.000E+00  6.283E+00  6.283E+00
  1.503E-01  1.503E-01  0.000E+00  0.000E+00  6.283E+00  6.283E+00
  1.837E-01  1.837E-01  0.000E+00  0.000E+00  6.283E+00  6.283E+00
  2.244E-01  2.244E-01  0.000E+00  0.000E+00  6.283E+00  6.283E+00
  2.742E-01  2.742E-01  0.000E+00  0.000E+00  6.283E+00  6.283E+00
  3.350E-01  3.350E-01  0.000E+00  0.000E+00  6.283E+00  6.283E+00
  4.092E-01  4.092E-01  0.000E+00  0.000E+00  6.283E+00  6.283E+00
  5.000E-01  5.000E-01  0.000E+00  0.000E+00  6.283E+00  6.283E+00
