 # Detector n:            1   BdxNeut   (integrated over solid angle)
 # N. of energy intervals         100
  1.000E-09  1.222E-09  1.608E+01  1.639E+01
  1.222E-09  1.493E-09  1.229E+01  9.003E+00
  1.493E-09  1.824E-09  1.018E+01  2.039E+01
  1.824E-09  2.228E-09  7.679E+00  9.198E+00
  2.228E-09  2.722E-09  8.286E+00  1.261E+01
  2.722E-09  3.326E-09  5.841E+00  7.150E+00
  3.326E-09  4.064E-09  5.878E+00  1.709E+01
  4.064E-09  4.965E-09  4.407E+00  7.670E+00
  4.965E-09  6.066E-09  3.393E+00  6.883E+00
  6.066E-09  7.411E-09  2.698E+00  4.302E+00
  7.411E-09  9.055E-09  2.403E+00  1.155E+01
  9.055E-09  1.106E-08  2.565E+00  9.796E+00
  1.106E-08  1.352E-08  1.694E+00  4.958E+00
  1.352E-08  1.651E-08  1.482E+00  1.598E+01
  1.651E-08  2.018E-08  1.515E+00  1.336E+01
  2.018E-08  2.465E-08  1.041E+00  3.733E+00
  2.465E-08  3.012E-08  8.868E-01  6.311E+00
  3.012E-08  3.680E-08  5.788E-01  5.857E+00
  3.680E-08  4.496E-08  5.541E-01  1.070E+01
  4.496E-08  5.493E-08  4.344E-01  1.037E+01
  5.493E-08  6.711E-08  3.349E-01  6.543E+00
  6.711E-08  8.199E-08  3.200E-01  4.084E+00
  8.199E-08  1.002E-07  2.480E-01  9.376E+00
  1.002E-07  1.224E-07  2.135E-01  7.560E+00
  1.224E-07  1.495E-07  1.742E-01  9.025E+00
  1.495E-07  1.827E-07  1.394E-01  8.810E+00
  1.827E-07  2.232E-07  1.351E-01  6.919E+00
  2.232E-07  2.727E-07  9.973E-02  5.063E+00
  2.727E-07  3.332E-07  9.683E-02  6.290E+00
  3.332E-07  4.071E-07  8.078E-02  1.029E+01
  4.071E-07  4.974E-07  5.360E-02  7.983E+00
  4.974E-07  6.077E-07  5.164E-02  7.293E+00
  6.077E-07  7.424E-07  4.111E-02  8.862E+00
  7.424E-07  9.071E-07  3.248E-02  8.356E+00
  9.071E-07  1.108E-06  3.124E-02  1.957E+01
  1.108E-06  1.354E-06  2.294E-02  3.063E+00
  1.354E-06  1.654E-06  1.906E-02  1.051E+01
  1.654E-06  2.021E-06  1.487E-02  3.711E+00
  2.021E-06  2.469E-06  1.401E-02  6.769E+00
  2.469E-06  3.017E-06  1.061E-02  3.262E+00
  3.017E-06  3.686E-06  1.017E-02  5.436E+00
  3.686E-06  4.504E-06  7.797E-03  6.958E+00
  4.504E-06  5.502E-06  6.780E-03  4.317E+00
  5.502E-06  6.723E-06  5.335E-03  5.181E+00
  6.723E-06  8.214E-06  4.794E-03  5.053E+00
  8.214E-06  1.004E-05  3.648E-03  8.874E+00
  1.004E-05  1.226E-05  3.349E-03  1.041E+01
  1.226E-05  1.498E-05  2.825E-03  5.792E+00
  1.498E-05  1.830E-05  2.487E-03  7.012E+00
  1.830E-05  2.236E-05  1.895E-03  8.345E+00
  2.236E-05  2.732E-05  2.069E-03  8.599E+00
  2.732E-05  3.338E-05  1.517E-03  9.049E+00
  3.338E-05  4.078E-05  1.389E-03  5.824E+00
  4.078E-05  4.982E-05  1.143E-03  9.049E+00
  4.982E-05  6.087E-05  1.035E-03  7.996E+00
  6.087E-05  7.437E-05  8.843E-04  5.703E+00
  7.437E-05  9.087E-05  8.048E-04  4.471E+00
  9.087E-05  1.110E-04  6.891E-04  5.480E+00
  1.110E-04  1.356E-04  6.026E-04  2.131E+00
  1.356E-04  1.657E-04  6.322E-04  2.432E+00
  1.657E-04  2.025E-04  5.155E-04  5.709E+00
  2.025E-04  2.474E-04  4.483E-04  2.347E+00
  2.474E-04  3.022E-04  4.282E-04  3.409E+00
  3.022E-04  3.693E-04  4.831E-04  1.656E+01
  3.693E-04  4.512E-04  3.974E-04  4.069E+00
  4.512E-04  5.512E-04  3.851E-04  3.258E+00
  5.512E-04  6.735E-04  3.395E-04  3.375E+00
  6.735E-04  8.228E-04  3.135E-04  1.512E+00
  8.228E-04  1.005E-03  3.175E-04  2.442E+00
  1.005E-03  1.228E-03  2.961E-04  2.736E+00
  1.228E-03  1.501E-03  2.635E-04  2.260E+00
  1.501E-03  1.833E-03  2.568E-04  3.061E+00
  1.833E-03  2.240E-03  2.410E-04  1.712E+00
  2.240E-03  2.737E-03  2.314E-04  2.759E+00
  2.737E-03  3.344E-03  2.104E-04  1.341E+00
  3.344E-03  4.085E-03  1.905E-04  2.026E+00
  4.085E-03  4.991E-03  1.879E-04  1.479E+00
  4.991E-03  6.098E-03  1.903E-04  1.525E+00
  6.098E-03  7.450E-03  1.757E-04  1.320E+00
  7.450E-03  9.103E-03  1.629E-04  8.608E-01
  9.103E-03  1.112E-02  1.621E-04  6.766E-01
  1.112E-02  1.359E-02  1.546E-04  1.076E+00
  1.359E-02  1.660E-02  1.508E-04  7.221E-01
  1.660E-02  2.028E-02  1.443E-04  9.574E-01
  2.028E-02  2.478E-02  1.323E-04  3.542E-01
  2.478E-02  3.028E-02  1.229E-04  4.575E-01
  3.028E-02  3.699E-02  1.168E-04  4.975E-01
  3.699E-02  4.520E-02  1.116E-04  3.028E-01
  4.520E-02  5.522E-02  1.840E-03  2.271E-02
  5.522E-02  6.746E-02  0.000E+00  0.000E+00
  6.746E-02  8.243E-02  0.000E+00  0.000E+00
  8.243E-02  1.007E-01  0.000E+00  0.000E+00
  1.007E-01  1.230E-01  0.000E+00  0.000E+00
  1.230E-01  1.503E-01  0.000E+00  0.000E+00
  1.503E-01  1.837E-01  0.000E+00  0.000E+00
  1.837E-01  2.244E-01  0.000E+00  0.000E+00
  2.244E-01  2.742E-01  0.000E+00  0.000E+00
  2.742E-01  3.350E-01  0.000E+00  0.000E+00
  3.350E-01  4.092E-01  0.000E+00  0.000E+00
  4.092E-01  5.000E-01  0.000E+00  0.000E+00


 # double differential distributions
 # number of solid angle intervals           1
 # Block n:            1     0.00000000      :   6.28318548    
  1.000E-09  1.222E-09  2.559E+00  1.639E+01  0.000E+00  6.283E+00
  1.222E-09  1.493E-09  1.955E+00  9.003E+00  0.000E+00  6.283E+00
  1.493E-09  1.824E-09  1.621E+00  2.039E+01  0.000E+00  6.283E+00
  1.824E-09  2.228E-09  1.222E+00  9.198E+00  0.000E+00  6.283E+00
  2.228E-09  2.722E-09  1.319E+00  1.261E+01  0.000E+00  6.283E+00
  2.722E-09  3.326E-09  9.296E-01  7.150E+00  0.000E+00  6.283E+00
  3.326E-09  4.064E-09  9.354E-01  1.709E+01  0.000E+00  6.283E+00
  4.064E-09  4.965E-09  7.013E-01  7.670E+00  0.000E+00  6.283E+00
  4.965E-09  6.066E-09  5.400E-01  6.883E+00  0.000E+00  6.283E+00
  6.066E-09  7.411E-09  4.294E-01  4.302E+00  0.000E+00  6.283E+00
  7.411E-09  9.055E-09  3.825E-01  1.155E+01  0.000E+00  6.283E+00
  9.055E-09  1.106E-08  4.082E-01  9.796E+00  0.000E+00  6.283E+00
  1.106E-08  1.352E-08  2.695E-01  4.958E+00  0.000E+00  6.283E+00
  1.352E-08  1.651E-08  2.358E-01  1.598E+01  0.000E+00  6.283E+00
  1.651E-08  2.018E-08  2.410E-01  1.336E+01  0.000E+00  6.283E+00
  2.018E-08  2.465E-08  1.657E-01  3.733E+00  0.000E+00  6.283E+00
  2.465E-08  3.012E-08  1.411E-01  6.311E+00  0.000E+00  6.283E+00
  3.012E-08  3.680E-08  9.212E-02  5.857E+00  0.000E+00  6.283E+00
  3.680E-08  4.496E-08  8.819E-02  1.070E+01  0.000E+00  6.283E+00
  4.496E-08  5.493E-08  6.914E-02  1.037E+01  0.000E+00  6.283E+00
  5.493E-08  6.711E-08  5.329E-02  6.543E+00  0.000E+00  6.283E+00
  6.711E-08  8.199E-08  5.093E-02  4.084E+00  0.000E+00  6.283E+00
  8.199E-08  1.002E-07  3.946E-02  9.376E+00  0.000E+00  6.283E+00
  1.002E-07  1.224E-07  3.398E-02  7.560E+00  0.000E+00  6.283E+00
  1.224E-07  1.495E-07  2.772E-02  9.025E+00  0.000E+00  6.283E+00
  1.495E-07  1.827E-07  2.219E-02  8.810E+00  0.000E+00  6.283E+00
  1.827E-07  2.232E-07  2.151E-02  6.919E+00  0.000E+00  6.283E+00
  2.232E-07  2.727E-07  1.587E-02  5.063E+00  0.000E+00  6.283E+00
  2.727E-07  3.332E-07  1.541E-02  6.290E+00  0.000E+00  6.283E+00
  3.332E-07  4.071E-07  1.286E-02  1.029E+01  0.000E+00  6.283E+00
  4.071E-07  4.974E-07  8.531E-03  7.983E+00  0.000E+00  6.283E+00
  4.974E-07  6.077E-07  8.219E-03  7.293E+00  0.000E+00  6.283E+00
  6.077E-07  7.424E-07  6.544E-03  8.862E+00  0.000E+00  6.283E+00
  7.424E-07  9.071E-07  5.170E-03  8.356E+00  0.000E+00  6.283E+00
  9.071E-07  1.108E-06  4.973E-03  1.957E+01  0.000E+00  6.283E+00
  1.108E-06  1.354E-06  3.651E-03  3.063E+00  0.000E+00  6.283E+00
  1.354E-06  1.654E-06  3.033E-03  1.051E+01  0.000E+00  6.283E+00
  1.654E-06  2.021E-06  2.366E-03  3.711E+00  0.000E+00  6.283E+00
  2.021E-06  2.469E-06  2.231E-03  6.769E+00  0.000E+00  6.283E+00
  2.469E-06  3.017E-06  1.689E-03  3.262E+00  0.000E+00  6.283E+00
  3.017E-06  3.686E-06  1.618E-03  5.436E+00  0.000E+00  6.283E+00
  3.686E-06  4.504E-06  1.241E-03  6.958E+00  0.000E+00  6.283E+00
  4.504E-06  5.502E-06  1.079E-03  4.317E+00  0.000E+00  6.283E+00
  5.502E-06  6.723E-06  8.491E-04  5.181E+00  0.000E+00  6.283E+00
  6.723E-06  8.214E-06  7.630E-04  5.053E+00  0.000E+00  6.283E+00
  8.214E-06  1.004E-05  5.805E-04  8.874E+00  0.000E+00  6.283E+00
  1.004E-05  1.226E-05  5.331E-04  1.041E+01  0.000E+00  6.283E+00
  1.226E-05  1.498E-05  4.496E-04  5.792E+00  0.000E+00  6.283E+00
  1.498E-05  1.830E-05  3.959E-04  7.012E+00  0.000E+00  6.283E+00
  1.830E-05  2.236E-05  3.015E-04  8.345E+00  0.000E+00  6.283E+00
  2.236E-05  2.732E-05  3.293E-04  8.599E+00  0.000E+00  6.283E+00
  2.732E-05  3.338E-05  2.414E-04  9.049E+00  0.000E+00  6.283E+00
  3.338E-05  4.078E-05  2.210E-04  5.824E+00  0.000E+00  6.283E+00
  4.078E-05  4.982E-05  1.818E-04  9.049E+00  0.000E+00  6.283E+00
  4.982E-05  6.087E-05  1.648E-04  7.996E+00  0.000E+00  6.283E+00
  6.087E-05  7.437E-05  1.407E-04  5.703E+00  0.000E+00  6.283E+00
  7.437E-05  9.087E-05  1.281E-04  4.471E+00  0.000E+00  6.283E+00
  9.087E-05  1.110E-04  1.097E-04  5.480E+00  0.000E+00  6.283E+00
  1.110E-04  1.356E-04  9.591E-05  2.131E+00  0.000E+00  6.283E+00
  1.356E-04  1.657E-04  1.006E-04  2.432E+00  0.000E+00  6.283E+00
  1.657E-04  2.025E-04  8.205E-05  5.709E+00  0.000E+00  6.283E+00
  2.025E-04  2.474E-04  7.135E-05  2.347E+00  0.000E+00  6.283E+00
  2.474E-04  3.022E-04  6.815E-05  3.409E+00  0.000E+00  6.283E+00
  3.022E-04  3.693E-04  7.689E-05  1.656E+01  0.000E+00  6.283E+00
  3.693E-04  4.512E-04  6.324E-05  4.069E+00  0.000E+00  6.283E+00
  4.512E-04  5.512E-04  6.130E-05  3.258E+00  0.000E+00  6.283E+00
  5.512E-04  6.735E-04  5.403E-05  3.375E+00  0.000E+00  6.283E+00
  6.735E-04  8.228E-04  4.990E-05  1.512E+00  0.000E+00  6.283E+00
  8.228E-04  1.005E-03  5.053E-05  2.442E+00  0.000E+00  6.283E+00
  1.005E-03  1.228E-03  4.713E-05  2.736E+00  0.000E+00  6.283E+00
  1.228E-03  1.501E-03  4.194E-05  2.260E+00  0.000E+00  6.283E+00
  1.501E-03  1.833E-03  4.087E-05  3.061E+00  0.000E+00  6.283E+00
  1.833E-03  2.240E-03  3.836E-05  1.712E+00  0.000E+00  6.283E+00
  2.240E-03  2.737E-03  3.682E-05  2.759E+00  0.000E+00  6.283E+00
  2.737E-03  3.344E-03  3.348E-05  1.341E+00  0.000E+00  6.283E+00
  3.344E-03  4.085E-03  3.032E-05  2.026E+00  0.000E+00  6.283E+00
  4.085E-03  4.991E-03  2.991E-05  1.479E+00  0.000E+00  6.283E+00
  4.991E-03  6.098E-03  3.029E-05  1.525E+00  0.000E+00  6.283E+00
  6.098E-03  7.450E-03  2.797E-05  1.320E+00  0.000E+00  6.283E+00
  7.450E-03  9.103E-03  2.593E-05  8.608E-01  0.000E+00  6.283E+00
  9.103E-03  1.112E-02  2.579E-05  6.766E-01  0.000E+00  6.283E+00
  1.112E-02  1.359E-02  2.460E-05  1.076E+00  0.000E+00  6.283E+00
  1.359E-02  1.660E-02  2.401E-05  7.221E-01  0.000E+00  6.283E+00
  1.660E-02  2.028E-02  2.297E-05  9.574E-01  0.000E+00  6.283E+00
  2.028E-02  2.478E-02  2.105E-05  3.542E-01  0.000E+00  6.283E+00
  2.478E-02  3.028E-02  1.956E-05  4.575E-01  0.000E+00  6.283E+00
  3.028E-02  3.699E-02  1.859E-05  4.975E-01  0.000E+00  6.283E+00
  3.699E-02  4.520E-02  1.777E-05  3.028E-01  0.000E+00  6.283E+00
  4.520E-02  5.522E-02  2.929E-04  2.271E-02  0.000E+00  6.283E+00
  5.522E-02  6.746E-02  0.000E+00  0.000E+00  0.000E+00  6.283E+00
  6.746E-02  8.243E-02  0.000E+00  0.000E+00  0.000E+00  6.283E+00
  8.243E-02  1.007E-01  0.000E+00  0.000E+00  0.000E+00  6.283E+00
  1.007E-01  1.230E-01  0.000E+00  0.000E+00  0.000E+00  6.283E+00
  1.230E-01  1.503E-01  0.000E+00  0.000E+00  0.000E+00  6.283E+00
  1.503E-01  1.837E-01  0.000E+00  0.000E+00  0.000E+00  6.283E+00
  1.837E-01  2.244E-01  0.000E+00  0.000E+00  0.000E+00  6.283E+00
  2.244E-01  2.742E-01  0.000E+00  0.000E+00  0.000E+00  6.283E+00
  2.742E-01  3.350E-01  0.000E+00  0.000E+00  0.000E+00  6.283E+00
  3.350E-01  4.092E-01  0.000E+00  0.000E+00  0.000E+00  6.283E+00
  4.092E-01  5.000E-01  0.000E+00  0.000E+00  0.000E+00  6.283E+00
  5.000E-01  5.000E-01  0.000E+00  0.000E+00  0.000E+00  6.283E+00

  1.000E-09  1.000E-09  0.000E+00  0.000E+00  6.283E+00  6.283E+00
  1.222E-09  1.222E-09  0.000E+00  0.000E+00  6.283E+00  6.283E+00
  1.493E-09  1.493E-09  0.000E+00  0.000E+00  6.283E+00  6.283E+00
  1.824E-09  1.824E-09  0.000E+00  0.000E+00  6.283E+00  6.283E+00
  2.228E-09  2.228E-09  0.000E+00  0.000E+00  6.283E+00  6.283E+00
  2.722E-09  2.722E-09  0.000E+00  0.000E+00  6.283E+00  6.283E+00
  3.326E-09  3.326E-09  0.000E+00  0.000E+00  6.283E+00  6.283E+00
  4.064E-09  4.064E-09  0.000E+00  0.000E+00  6.283E+00  6.283E+00
  4.965E-09  4.965E-09  0.000E+00  0.000E+00  6.283E+00  6.283E+00
  6.066E-09  6.066E-09  0.000E+00  0.000E+00  6.283E+00  6.283E+00
  7.411E-09  7.411E-09  0.000E+00  0.000E+00  6.283E+00  6.283E+00
  9.055E-09  9.055E-09  0.000E+00  0.000E+00  6.283E+00  6.283E+00
  1.106E-08  1.106E-08  0.000E+00  0.000E+00  6.283E+00  6.283E+00
  1.352E-08  1.352E-08  0.000E+00  0.000E+00  6.283E+00  6.283E+00
  1.651E-08  1.651E-08  0.000E+00  0.000E+00  6.283E+00  6.283E+00
  2.018E-08  2.018E-08  0.000E+00  0.000E+00  6.283E+00  6.283E+00
  2.465E-08  2.465E-08  0.000E+00  0.000E+00  6.283E+00  6.283E+00
  3.012E-08  3.012E-08  0.000E+00  0.000E+00  6.283E+00  6.283E+00
  3.680E-08  3.680E-08  0.000E+00  0.000E+00  6.283E+00  6.283E+00
  4.496E-08  4.496E-08  0.000E+00  0.000E+00  6.283E+00  6.283E+00
  5.493E-08  5.493E-08  0.000E+00  0.000E+00  6.283E+00  6.283E+00
  6.711E-08  6.711E-08  0.000E+00  0.000E+00  6.283E+00  6.283E+00
  8.199E-08  8.199E-08  0.000E+00  0.000E+00  6.283E+00  6.283E+00
  1.002E-07  1.002E-07  0.000E+00  0.000E+00  6.283E+00  6.283E+00
  1.224E-07  1.224E-07  0.000E+00  0.000E+00  6.283E+00  6.283E+00
  1.495E-07  1.495E-07  0.000E+00  0.000E+00  6.283E+00  6.283E+00
  1.827E-07  1.827E-07  0.000E+00  0.000E+00  6.283E+00  6.283E+00
  2.232E-07  2.232E-07  0.000E+00  0.000E+00  6.283E+00  6.283E+00
  2.727E-07  2.727E-07  0.000E+00  0.000E+00  6.283E+00  6.283E+00
  3.332E-07  3.332E-07  0.000E+00  0.000E+00  6.283E+00  6.283E+00
  4.071E-07  4.071E-07  0.000E+00  0.000E+00  6.283E+00  6.283E+00
  4.974E-07  4.974E-07  0.000E+00  0.000E+00  6.283E+00  6.283E+00
  6.077E-07  6.077E-07  0.000E+00  0.000E+00  6.283E+00  6.283E+00
  7.424E-07  7.424E-07  0.000E+00  0.000E+00  6.283E+00  6.283E+00
  9.071E-07  9.071E-07  0.000E+00  0.000E+00  6.283E+00  6.283E+00
  1.108E-06  1.108E-06  0.000E+00  0.000E+00  6.283E+00  6.283E+00
  1.354E-06  1.354E-06  0.000E+00  0.000E+00  6.283E+00  6.283E+00
  1.654E-06  1.654E-06  0.000E+00  0.000E+00  6.283E+00  6.283E+00
  2.021E-06  2.021E-06  0.000E+00  0.000E+00  6.283E+00  6.283E+00
  2.469E-06  2.469E-06  0.000E+00  0.000E+00  6.283E+00  6.283E+00
  3.017E-06  3.017E-06  0.000E+00  0.000E+00  6.283E+00  6.283E+00
  3.686E-06  3.686E-06  0.000E+00  0.000E+00  6.283E+00  6.283E+00
  4.504E-06  4.504E-06  0.000E+00  0.000E+00  6.283E+00  6.283E+00
  5.502E-06  5.502E-06  0.000E+00  0.000E+00  6.283E+00  6.283E+00
  6.723E-06  6.723E-06  0.000E+00  0.000E+00  6.283E+00  6.283E+00
  8.214E-06  8.214E-06  0.000E+00  0.000E+00  6.283E+00  6.283E+00
  1.004E-05  1.004E-05  0.000E+00  0.000E+00  6.283E+00  6.283E+00
  1.226E-05  1.226E-05  0.000E+00  0.000E+00  6.283E+00  6.283E+00
  1.498E-05  1.498E-05  0.000E+00  0.000E+00  6.283E+00  6.283E+00
  1.830E-05  1.830E-05  0.000E+00  0.000E+00  6.283E+00  6.283E+00
  2.236E-05  2.236E-05  0.000E+00  0.000E+00  6.283E+00  6.283E+00
  2.732E-05  2.732E-05  0.000E+00  0.000E+00  6.283E+00  6.283E+00
  3.338E-05  3.338E-05  0.000E+00  0.000E+00  6.283E+00  6.283E+00
  4.078E-05  4.078E-05  0.000E+00  0.000E+00  6.283E+00  6.283E+00
  4.982E-05  4.982E-05  0.000E+00  0.000E+00  6.283E+00  6.283E+00
  6.087E-05  6.087E-05  0.000E+00  0.000E+00  6.283E+00  6.283E+00
  7.437E-05  7.437E-05  0.000E+00  0.000E+00  6.283E+00  6.283E+00
  9.087E-05  9.087E-05  0.000E+00  0.000E+00  6.283E+00  6.283E+00
  1.110E-04  1.110E-04  0.000E+00  0.000E+00  6.283E+00  6.283E+00
  1.356E-04  1.356E-04  0.000E+00  0.000E+00  6.283E+00  6.283E+00
  1.657E-04  1.657E-04  0.000E+00  0.000E+00  6.283E+00  6.283E+00
  2.025E-04  2.025E-04  0.000E+00  0.000E+00  6.283E+00  6.283E+00
  2.474E-04  2.474E-04  0.000E+00  0.000E+00  6.283E+00  6.283E+00
  3.022E-04  3.022E-04  0.000E+00  0.000E+00  6.283E+00  6.283E+00
  3.693E-04  3.693E-04  0.000E+00  0.000E+00  6.283E+00  6.283E+00
  4.512E-04  4.512E-04  0.000E+00  0.000E+00  6.283E+00  6.283E+00
  5.512E-04  5.512E-04  0.000E+00  0.000E+00  6.283E+00  6.283E+00
  6.735E-04  6.735E-04  0.000E+00  0.000E+00  6.283E+00  6.283E+00
  8.228E-04  8.228E-04  0.000E+00  0.000E+00  6.283E+00  6.283E+00
  1.005E-03  1.005E-03  0.000E+00  0.000E+00  6.283E+00  6.283E+00
  1.228E-03  1.228E-03  0.000E+00  0.000E+00  6.283E+00  6.283E+00
  1.501E-03  1.501E-03  0.000E+00  0.000E+00  6.283E+00  6.283E+00
  1.833E-03  1.833E-03  0.000E+00  0.000E+00  6.283E+00  6.283E+00
  2.240E-03  2.240E-03  0.000E+00  0.000E+00  6.283E+00  6.283E+00
  2.737E-03  2.737E-03  0.000E+00  0.000E+00  6.283E+00  6.283E+00
  3.344E-03  3.344E-03  0.000E+00  0.000E+00  6.283E+00  6.283E+00
  4.085E-03  4.085E-03  0.000E+00  0.000E+00  6.283E+00  6.283E+00
  4.991E-03  4.991E-03  0.000E+00  0.000E+00  6.283E+00  6.283E+00
  6.098E-03  6.098E-03  0.000E+00  0.000E+00  6.283E+00  6.283E+00
  7.450E-03  7.450E-03  0.000E+00  0.000E+00  6.283E+00  6.283E+00
  9.103E-03  9.103E-03  0.000E+00  0.000E+00  6.283E+00  6.283E+00
  1.112E-02  1.112E-02  0.000E+00  0.000E+00  6.283E+00  6.283E+00
  1.359E-02  1.359E-02  0.000E+00  0.000E+00  6.283E+00  6.283E+00
  1.660E-02  1.660E-02  0.000E+00  0.000E+00  6.283E+00  6.283E+00
  2.028E-02  2.028E-02  0.000E+00  0.000E+00  6.283E+00  6.283E+00
  2.478E-02  2.478E-02  0.000E+00  0.000E+00  6.283E+00  6.283E+00
  3.028E-02  3.028E-02  0.000E+00  0.000E+00  6.283E+00  6.283E+00
  3.699E-02  3.699E-02  0.000E+00  0.000E+00  6.283E+00  6.283E+00
  4.520E-02  4.520E-02  0.000E+00  0.000E+00  6.283E+00  6.283E+00
  5.522E-02  5.522E-02  0.000E+00  0.000E+00  6.283E+00  6.283E+00
  6.746E-02  6.746E-02  0.000E+00  0.000E+00  6.283E+00  6.283E+00
  8.243E-02  8.243E-02  0.000E+00  0.000E+00  6.283E+00  6.283E+00
  1.007E-01  1.007E-01  0.000E+00  0.000E+00  6.283E+00  6.283E+00
  1.230E-01  1.230E-01  0.000E+00  0.000E+00  6.283E+00  6.283E+00
  1.503E-01  1.503E-01  0.000E+00  0.000E+00  6.283E+00  6.283E+00
  1.837E-01  1.837E-01  0.000E+00  0.000E+00  6.283E+00  6.283E+00
  2.244E-01  2.244E-01  0.000E+00  0.000E+00  6.283E+00  6.283E+00
  2.742E-01  2.742E-01  0.000E+00  0.000E+00  6.283E+00  6.283E+00
  3.350E-01  3.350E-01  0.000E+00  0.000E+00  6.283E+00  6.283E+00
  4.092E-01  4.092E-01  0.000E+00  0.000E+00  6.283E+00  6.283E+00
  5.000E-01  5.000E-01  0.000E+00  0.000E+00  6.283E+00  6.283E+00
