 # Detector n:            1   BdxNeut   (integrated over solid angle)
 # N. of energy intervals         100
  1.000E-09  1.222E-09  7.193E+00  2.406E+01
  1.222E-09  1.493E-09  4.589E+00  1.518E+01
  1.493E-09  1.824E-09  4.107E+00  1.533E+01
  1.824E-09  2.228E-09  3.648E+00  1.735E+01
  2.228E-09  2.722E-09  2.661E+00  1.154E+01
  2.722E-09  3.326E-09  2.461E+00  6.587E+00
  3.326E-09  4.064E-09  1.890E+00  2.023E+01
  4.064E-09  4.965E-09  1.489E+00  1.102E+01
  4.965E-09  6.066E-09  1.474E+00  8.803E+00
  6.066E-09  7.411E-09  1.350E+00  1.077E+01
  7.411E-09  9.055E-09  9.902E-01  6.176E+00
  9.055E-09  1.106E-08  8.863E-01  1.185E+01
  1.106E-08  1.352E-08  7.165E-01  9.267E+00
  1.352E-08  1.651E-08  5.586E-01  7.540E+00
  1.651E-08  2.018E-08  5.096E-01  7.144E+00
  2.018E-08  2.465E-08  4.340E-01  1.150E+01
  2.465E-08  3.012E-08  3.477E-01  9.841E+00
  3.012E-08  3.680E-08  2.716E-01  1.282E+01
  3.680E-08  4.496E-08  2.444E-01  1.123E+01
  4.496E-08  5.493E-08  1.961E-01  1.071E+01
  5.493E-08  6.711E-08  1.456E-01  8.764E+00
  6.711E-08  8.199E-08  1.047E-01  8.883E+00
  8.199E-08  1.002E-07  9.606E-02  2.764E+00
  1.002E-07  1.224E-07  7.856E-02  1.367E+01
  1.224E-07  1.495E-07  8.379E-02  8.857E+00
  1.495E-07  1.827E-07  6.539E-02  1.258E+01
  1.827E-07  2.232E-07  5.625E-02  3.831E+00
  2.232E-07  2.727E-07  4.580E-02  1.560E+01
  2.727E-07  3.332E-07  5.761E-02  4.319E+01
  3.332E-07  4.071E-07  4.091E-02  2.161E+01
  4.071E-07  4.974E-07  1.942E-02  8.123E+00
  4.974E-07  6.077E-07  2.047E-02  1.136E+01
  6.077E-07  7.424E-07  1.554E-02  6.520E+00
  7.424E-07  9.071E-07  1.079E-02  1.609E+01
  9.071E-07  1.108E-06  1.133E-02  1.532E+01
  1.108E-06  1.354E-06  1.029E-02  7.102E+00
  1.354E-06  1.654E-06  7.768E-03  6.440E+00
  1.654E-06  2.021E-06  6.881E-03  9.479E+00
  2.021E-06  2.469E-06  5.062E-03  1.082E+01
  2.469E-06  3.017E-06  4.378E-03  1.009E+01
  3.017E-06  3.686E-06  3.772E-03  3.468E+00
  3.686E-06  4.504E-06  2.532E-03  1.302E+01
  4.504E-06  5.502E-06  2.959E-03  1.171E+01
  5.502E-06  6.723E-06  2.830E-03  1.539E+01
  6.723E-06  8.214E-06  1.965E-03  1.555E+01
  8.214E-06  1.004E-05  1.752E-03  1.143E+01
  1.004E-05  1.226E-05  1.469E-03  1.819E+00
  1.226E-05  1.498E-05  1.105E-03  1.028E+01
  1.498E-05  1.830E-05  9.796E-04  7.750E+00
  1.830E-05  2.236E-05  7.903E-04  1.153E+01
  2.236E-05  2.732E-05  6.604E-04  6.711E+00
  2.732E-05  3.338E-05  5.735E-04  8.034E+00
  3.338E-05  4.078E-05  5.719E-04  2.498E+00
  4.078E-05  4.982E-05  3.946E-04  7.232E+00
  4.982E-05  6.087E-05  3.820E-04  1.234E+01
  6.087E-05  7.437E-05  3.555E-04  8.428E+00
  7.437E-05  9.087E-05  2.859E-04  7.730E+00
  9.087E-05  1.110E-04  2.500E-04  1.114E+01
  1.110E-04  1.356E-04  2.339E-04  5.825E+00
  1.356E-04  1.657E-04  2.416E-04  1.151E+01
  1.657E-04  2.025E-04  2.418E-04  6.958E+00
  2.025E-04  2.474E-04  1.963E-04  3.601E+00
  2.474E-04  3.022E-04  1.848E-04  5.156E+00
  3.022E-04  3.693E-04  1.822E-04  5.219E+00
  3.693E-04  4.512E-04  1.631E-04  5.754E+00
  4.512E-04  5.512E-04  1.644E-04  5.144E+00
  5.512E-04  6.735E-04  1.311E-04  6.171E+00
  6.735E-04  8.228E-04  1.313E-04  5.360E+00
  8.228E-04  1.005E-03  1.251E-04  2.712E+00
  1.005E-03  1.228E-03  1.221E-04  6.852E+00
  1.228E-03  1.501E-03  1.146E-04  4.821E+00
  1.501E-03  1.833E-03  1.073E-04  5.381E+00
  1.833E-03  2.240E-03  9.706E-05  2.316E+00
  2.240E-03  2.737E-03  8.549E-05  1.733E+00
  2.737E-03  3.344E-03  7.929E-05  3.274E+00
  3.344E-03  4.085E-03  6.639E-05  1.217E+00
  4.085E-03  4.991E-03  6.924E-05  3.995E+00
  4.991E-03  6.098E-03  6.227E-05  3.960E+00
  6.098E-03  7.450E-03  5.810E-05  1.915E+00
  7.450E-03  9.103E-03  4.801E-05  2.789E+00
  9.103E-03  1.112E-02  4.487E-05  8.688E-01
  1.112E-02  1.359E-02  4.162E-05  1.422E+00
  1.359E-02  1.660E-02  3.727E-05  1.064E+00
  1.660E-02  2.028E-02  3.958E-05  2.411E+00
  2.028E-02  2.478E-02  3.768E-05  1.895E+00
  2.478E-02  3.028E-02  3.595E-05  1.788E+00
  3.028E-02  3.699E-02  3.626E-05  6.453E-01
  3.699E-02  4.520E-02  3.641E-05  1.276E+00
  4.520E-02  5.522E-02  3.425E-05  1.252E+00
  5.522E-02  6.746E-02  3.177E-05  4.889E-01
  6.746E-02  8.243E-02  2.715E-05  4.231E-01
  8.243E-02  1.007E-01  2.318E-05  1.097E+00
  1.007E-01  1.230E-01  1.983E-05  7.688E-01
  1.230E-01  1.503E-01  1.789E-05  5.922E-01
  1.503E-01  1.837E-01  1.620E-05  4.535E-01
  1.837E-01  2.244E-01  5.384E-04  3.355E-02
  2.244E-01  2.742E-01  0.000E+00  0.000E+00
  2.742E-01  3.350E-01  0.000E+00  0.000E+00
  3.350E-01  4.092E-01  0.000E+00  0.000E+00
  4.092E-01  5.000E-01  0.000E+00  0.000E+00


 # double differential distributions
 # number of solid angle intervals           1
 # Block n:            1     0.00000000      :   6.28318548    
  1.000E-09  1.222E-09  1.145E+00  2.406E+01  0.000E+00  6.283E+00
  1.222E-09  1.493E-09  7.303E-01  1.518E+01  0.000E+00  6.283E+00
  1.493E-09  1.824E-09  6.537E-01  1.533E+01  0.000E+00  6.283E+00
  1.824E-09  2.228E-09  5.807E-01  1.735E+01  0.000E+00  6.283E+00
  2.228E-09  2.722E-09  4.236E-01  1.154E+01  0.000E+00  6.283E+00
  2.722E-09  3.326E-09  3.918E-01  6.587E+00  0.000E+00  6.283E+00
  3.326E-09  4.064E-09  3.008E-01  2.023E+01  0.000E+00  6.283E+00
  4.064E-09  4.965E-09  2.369E-01  1.102E+01  0.000E+00  6.283E+00
  4.965E-09  6.066E-09  2.347E-01  8.803E+00  0.000E+00  6.283E+00
  6.066E-09  7.411E-09  2.149E-01  1.077E+01  0.000E+00  6.283E+00
  7.411E-09  9.055E-09  1.576E-01  6.176E+00  0.000E+00  6.283E+00
  9.055E-09  1.106E-08  1.411E-01  1.185E+01  0.000E+00  6.283E+00
  1.106E-08  1.352E-08  1.140E-01  9.267E+00  0.000E+00  6.283E+00
  1.352E-08  1.651E-08  8.890E-02  7.540E+00  0.000E+00  6.283E+00
  1.651E-08  2.018E-08  8.111E-02  7.144E+00  0.000E+00  6.283E+00
  2.018E-08  2.465E-08  6.908E-02  1.150E+01  0.000E+00  6.283E+00
  2.465E-08  3.012E-08  5.535E-02  9.841E+00  0.000E+00  6.283E+00
  3.012E-08  3.680E-08  4.323E-02  1.282E+01  0.000E+00  6.283E+00
  3.680E-08  4.496E-08  3.890E-02  1.123E+01  0.000E+00  6.283E+00
  4.496E-08  5.493E-08  3.121E-02  1.071E+01  0.000E+00  6.283E+00
  5.493E-08  6.711E-08  2.317E-02  8.764E+00  0.000E+00  6.283E+00
  6.711E-08  8.199E-08  1.667E-02  8.883E+00  0.000E+00  6.283E+00
  8.199E-08  1.002E-07  1.529E-02  2.764E+00  0.000E+00  6.283E+00
  1.002E-07  1.224E-07  1.250E-02  1.367E+01  0.000E+00  6.283E+00
  1.224E-07  1.495E-07  1.334E-02  8.857E+00  0.000E+00  6.283E+00
  1.495E-07  1.827E-07  1.041E-02  1.258E+01  0.000E+00  6.283E+00
  1.827E-07  2.232E-07  8.952E-03  3.831E+00  0.000E+00  6.283E+00
  2.232E-07  2.727E-07  7.289E-03  1.560E+01  0.000E+00  6.283E+00
  2.727E-07  3.332E-07  9.169E-03  4.319E+01  0.000E+00  6.283E+00
  3.332E-07  4.071E-07  6.511E-03  2.161E+01  0.000E+00  6.283E+00
  4.071E-07  4.974E-07  3.091E-03  8.123E+00  0.000E+00  6.283E+00
  4.974E-07  6.077E-07  3.258E-03  1.136E+01  0.000E+00  6.283E+00
  6.077E-07  7.424E-07  2.473E-03  6.520E+00  0.000E+00  6.283E+00
  7.424E-07  9.071E-07  1.718E-03  1.609E+01  0.000E+00  6.283E+00
  9.071E-07  1.108E-06  1.803E-03  1.532E+01  0.000E+00  6.283E+00
  1.108E-06  1.354E-06  1.638E-03  7.102E+00  0.000E+00  6.283E+00
  1.354E-06  1.654E-06  1.236E-03  6.440E+00  0.000E+00  6.283E+00
  1.654E-06  2.021E-06  1.095E-03  9.479E+00  0.000E+00  6.283E+00
  2.021E-06  2.469E-06  8.056E-04  1.082E+01  0.000E+00  6.283E+00
  2.469E-06  3.017E-06  6.969E-04  1.009E+01  0.000E+00  6.283E+00
  3.017E-06  3.686E-06  6.003E-04  3.468E+00  0.000E+00  6.283E+00
  3.686E-06  4.504E-06  4.030E-04  1.302E+01  0.000E+00  6.283E+00
  4.504E-06  5.502E-06  4.709E-04  1.171E+01  0.000E+00  6.283E+00
  5.502E-06  6.723E-06  4.504E-04  1.539E+01  0.000E+00  6.283E+00
  6.723E-06  8.214E-06  3.127E-04  1.555E+01  0.000E+00  6.283E+00
  8.214E-06  1.004E-05  2.788E-04  1.143E+01  0.000E+00  6.283E+00
  1.004E-05  1.226E-05  2.338E-04  1.819E+00  0.000E+00  6.283E+00
  1.226E-05  1.498E-05  1.758E-04  1.028E+01  0.000E+00  6.283E+00
  1.498E-05  1.830E-05  1.559E-04  7.750E+00  0.000E+00  6.283E+00
  1.830E-05  2.236E-05  1.258E-04  1.153E+01  0.000E+00  6.283E+00
  2.236E-05  2.732E-05  1.051E-04  6.711E+00  0.000E+00  6.283E+00
  2.732E-05  3.338E-05  9.128E-05  8.034E+00  0.000E+00  6.283E+00
  3.338E-05  4.078E-05  9.102E-05  2.498E+00  0.000E+00  6.283E+00
  4.078E-05  4.982E-05  6.280E-05  7.232E+00  0.000E+00  6.283E+00
  4.982E-05  6.087E-05  6.079E-05  1.234E+01  0.000E+00  6.283E+00
  6.087E-05  7.437E-05  5.658E-05  8.428E+00  0.000E+00  6.283E+00
  7.437E-05  9.087E-05  4.551E-05  7.730E+00  0.000E+00  6.283E+00
  9.087E-05  1.110E-04  3.979E-05  1.114E+01  0.000E+00  6.283E+00
  1.110E-04  1.356E-04  3.723E-05  5.825E+00  0.000E+00  6.283E+00
  1.356E-04  1.657E-04  3.846E-05  1.151E+01  0.000E+00  6.283E+00
  1.657E-04  2.025E-04  3.849E-05  6.958E+00  0.000E+00  6.283E+00
  2.025E-04  2.474E-04  3.124E-05  3.601E+00  0.000E+00  6.283E+00
  2.474E-04  3.022E-04  2.940E-05  5.156E+00  0.000E+00  6.283E+00
  3.022E-04  3.693E-04  2.900E-05  5.219E+00  0.000E+00  6.283E+00
  3.693E-04  4.512E-04  2.596E-05  5.754E+00  0.000E+00  6.283E+00
  4.512E-04  5.512E-04  2.616E-05  5.144E+00  0.000E+00  6.283E+00
  5.512E-04  6.735E-04  2.087E-05  6.171E+00  0.000E+00  6.283E+00
  6.735E-04  8.228E-04  2.089E-05  5.360E+00  0.000E+00  6.283E+00
  8.228E-04  1.005E-03  1.992E-05  2.712E+00  0.000E+00  6.283E+00
  1.005E-03  1.228E-03  1.944E-05  6.852E+00  0.000E+00  6.283E+00
  1.228E-03  1.501E-03  1.823E-05  4.821E+00  0.000E+00  6.283E+00
  1.501E-03  1.833E-03  1.708E-05  5.381E+00  0.000E+00  6.283E+00
  1.833E-03  2.240E-03  1.545E-05  2.316E+00  0.000E+00  6.283E+00
  2.240E-03  2.737E-03  1.361E-05  1.733E+00  0.000E+00  6.283E+00
  2.737E-03  3.344E-03  1.262E-05  3.274E+00  0.000E+00  6.283E+00
  3.344E-03  4.085E-03  1.057E-05  1.217E+00  0.000E+00  6.283E+00
  4.085E-03  4.991E-03  1.102E-05  3.995E+00  0.000E+00  6.283E+00
  4.991E-03  6.098E-03  9.910E-06  3.960E+00  0.000E+00  6.283E+00
  6.098E-03  7.450E-03  9.247E-06  1.915E+00  0.000E+00  6.283E+00
  7.450E-03  9.103E-03  7.640E-06  2.789E+00  0.000E+00  6.283E+00
  9.103E-03  1.112E-02  7.142E-06  8.688E-01  0.000E+00  6.283E+00
  1.112E-02  1.359E-02  6.624E-06  1.422E+00  0.000E+00  6.283E+00
  1.359E-02  1.660E-02  5.932E-06  1.064E+00  0.000E+00  6.283E+00
  1.660E-02  2.028E-02  6.299E-06  2.411E+00  0.000E+00  6.283E+00
  2.028E-02  2.478E-02  5.997E-06  1.895E+00  0.000E+00  6.283E+00
  2.478E-02  3.028E-02  5.722E-06  1.788E+00  0.000E+00  6.283E+00
  3.028E-02  3.699E-02  5.771E-06  6.453E-01  0.000E+00  6.283E+00
  3.699E-02  4.520E-02  5.794E-06  1.276E+00  0.000E+00  6.283E+00
  4.520E-02  5.522E-02  5.450E-06  1.252E+00  0.000E+00  6.283E+00
  5.522E-02  6.746E-02  5.056E-06  4.889E-01  0.000E+00  6.283E+00
  6.746E-02  8.243E-02  4.321E-06  4.231E-01  0.000E+00  6.283E+00
  8.243E-02  1.007E-01  3.689E-06  1.097E+00  0.000E+00  6.283E+00
  1.007E-01  1.230E-01  3.156E-06  7.688E-01  0.000E+00  6.283E+00
  1.230E-01  1.503E-01  2.847E-06  5.922E-01  0.000E+00  6.283E+00
  1.503E-01  1.837E-01  2.578E-06  4.535E-01  0.000E+00  6.283E+00
  1.837E-01  2.244E-01  8.569E-05  3.355E-02  0.000E+00  6.283E+00
  2.244E-01  2.742E-01  0.000E+00  0.000E+00  0.000E+00  6.283E+00
  2.742E-01  3.350E-01  0.000E+00  0.000E+00  0.000E+00  6.283E+00
  3.350E-01  4.092E-01  0.000E+00  0.000E+00  0.000E+00  6.283E+00
  4.092E-01  5.000E-01  0.000E+00  0.000E+00  0.000E+00  6.283E+00
  5.000E-01  5.000E-01  0.000E+00  0.000E+00  0.000E+00  6.283E+00

  1.000E-09  1.000E-09  0.000E+00  0.000E+00  6.283E+00  6.283E+00
  1.222E-09  1.222E-09  0.000E+00  0.000E+00  6.283E+00  6.283E+00
  1.493E-09  1.493E-09  0.000E+00  0.000E+00  6.283E+00  6.283E+00
  1.824E-09  1.824E-09  0.000E+00  0.000E+00  6.283E+00  6.283E+00
  2.228E-09  2.228E-09  0.000E+00  0.000E+00  6.283E+00  6.283E+00
  2.722E-09  2.722E-09  0.000E+00  0.000E+00  6.283E+00  6.283E+00
  3.326E-09  3.326E-09  0.000E+00  0.000E+00  6.283E+00  6.283E+00
  4.064E-09  4.064E-09  0.000E+00  0.000E+00  6.283E+00  6.283E+00
  4.965E-09  4.965E-09  0.000E+00  0.000E+00  6.283E+00  6.283E+00
  6.066E-09  6.066E-09  0.000E+00  0.000E+00  6.283E+00  6.283E+00
  7.411E-09  7.411E-09  0.000E+00  0.000E+00  6.283E+00  6.283E+00
  9.055E-09  9.055E-09  0.000E+00  0.000E+00  6.283E+00  6.283E+00
  1.106E-08  1.106E-08  0.000E+00  0.000E+00  6.283E+00  6.283E+00
  1.352E-08  1.352E-08  0.000E+00  0.000E+00  6.283E+00  6.283E+00
  1.651E-08  1.651E-08  0.000E+00  0.000E+00  6.283E+00  6.283E+00
  2.018E-08  2.018E-08  0.000E+00  0.000E+00  6.283E+00  6.283E+00
  2.465E-08  2.465E-08  0.000E+00  0.000E+00  6.283E+00  6.283E+00
  3.012E-08  3.012E-08  0.000E+00  0.000E+00  6.283E+00  6.283E+00
  3.680E-08  3.680E-08  0.000E+00  0.000E+00  6.283E+00  6.283E+00
  4.496E-08  4.496E-08  0.000E+00  0.000E+00  6.283E+00  6.283E+00
  5.493E-08  5.493E-08  0.000E+00  0.000E+00  6.283E+00  6.283E+00
  6.711E-08  6.711E-08  0.000E+00  0.000E+00  6.283E+00  6.283E+00
  8.199E-08  8.199E-08  0.000E+00  0.000E+00  6.283E+00  6.283E+00
  1.002E-07  1.002E-07  0.000E+00  0.000E+00  6.283E+00  6.283E+00
  1.224E-07  1.224E-07  0.000E+00  0.000E+00  6.283E+00  6.283E+00
  1.495E-07  1.495E-07  0.000E+00  0.000E+00  6.283E+00  6.283E+00
  1.827E-07  1.827E-07  0.000E+00  0.000E+00  6.283E+00  6.283E+00
  2.232E-07  2.232E-07  0.000E+00  0.000E+00  6.283E+00  6.283E+00
  2.727E-07  2.727E-07  0.000E+00  0.000E+00  6.283E+00  6.283E+00
  3.332E-07  3.332E-07  0.000E+00  0.000E+00  6.283E+00  6.283E+00
  4.071E-07  4.071E-07  0.000E+00  0.000E+00  6.283E+00  6.283E+00
  4.974E-07  4.974E-07  0.000E+00  0.000E+00  6.283E+00  6.283E+00
  6.077E-07  6.077E-07  0.000E+00  0.000E+00  6.283E+00  6.283E+00
  7.424E-07  7.424E-07  0.000E+00  0.000E+00  6.283E+00  6.283E+00
  9.071E-07  9.071E-07  0.000E+00  0.000E+00  6.283E+00  6.283E+00
  1.108E-06  1.108E-06  0.000E+00  0.000E+00  6.283E+00  6.283E+00
  1.354E-06  1.354E-06  0.000E+00  0.000E+00  6.283E+00  6.283E+00
  1.654E-06  1.654E-06  0.000E+00  0.000E+00  6.283E+00  6.283E+00
  2.021E-06  2.021E-06  0.000E+00  0.000E+00  6.283E+00  6.283E+00
  2.469E-06  2.469E-06  0.000E+00  0.000E+00  6.283E+00  6.283E+00
  3.017E-06  3.017E-06  0.000E+00  0.000E+00  6.283E+00  6.283E+00
  3.686E-06  3.686E-06  0.000E+00  0.000E+00  6.283E+00  6.283E+00
  4.504E-06  4.504E-06  0.000E+00  0.000E+00  6.283E+00  6.283E+00
  5.502E-06  5.502E-06  0.000E+00  0.000E+00  6.283E+00  6.283E+00
  6.723E-06  6.723E-06  0.000E+00  0.000E+00  6.283E+00  6.283E+00
  8.214E-06  8.214E-06  0.000E+00  0.000E+00  6.283E+00  6.283E+00
  1.004E-05  1.004E-05  0.000E+00  0.000E+00  6.283E+00  6.283E+00
  1.226E-05  1.226E-05  0.000E+00  0.000E+00  6.283E+00  6.283E+00
  1.498E-05  1.498E-05  0.000E+00  0.000E+00  6.283E+00  6.283E+00
  1.830E-05  1.830E-05  0.000E+00  0.000E+00  6.283E+00  6.283E+00
  2.236E-05  2.236E-05  0.000E+00  0.000E+00  6.283E+00  6.283E+00
  2.732E-05  2.732E-05  0.000E+00  0.000E+00  6.283E+00  6.283E+00
  3.338E-05  3.338E-05  0.000E+00  0.000E+00  6.283E+00  6.283E+00
  4.078E-05  4.078E-05  0.000E+00  0.000E+00  6.283E+00  6.283E+00
  4.982E-05  4.982E-05  0.000E+00  0.000E+00  6.283E+00  6.283E+00
  6.087E-05  6.087E-05  0.000E+00  0.000E+00  6.283E+00  6.283E+00
  7.437E-05  7.437E-05  0.000E+00  0.000E+00  6.283E+00  6.283E+00
  9.087E-05  9.087E-05  0.000E+00  0.000E+00  6.283E+00  6.283E+00
  1.110E-04  1.110E-04  0.000E+00  0.000E+00  6.283E+00  6.283E+00
  1.356E-04  1.356E-04  0.000E+00  0.000E+00  6.283E+00  6.283E+00
  1.657E-04  1.657E-04  0.000E+00  0.000E+00  6.283E+00  6.283E+00
  2.025E-04  2.025E-04  0.000E+00  0.000E+00  6.283E+00  6.283E+00
  2.474E-04  2.474E-04  0.000E+00  0.000E+00  6.283E+00  6.283E+00
  3.022E-04  3.022E-04  0.000E+00  0.000E+00  6.283E+00  6.283E+00
  3.693E-04  3.693E-04  0.000E+00  0.000E+00  6.283E+00  6.283E+00
  4.512E-04  4.512E-04  0.000E+00  0.000E+00  6.283E+00  6.283E+00
  5.512E-04  5.512E-04  0.000E+00  0.000E+00  6.283E+00  6.283E+00
  6.735E-04  6.735E-04  0.000E+00  0.000E+00  6.283E+00  6.283E+00
  8.228E-04  8.228E-04  0.000E+00  0.000E+00  6.283E+00  6.283E+00
  1.005E-03  1.005E-03  0.000E+00  0.000E+00  6.283E+00  6.283E+00
  1.228E-03  1.228E-03  0.000E+00  0.000E+00  6.283E+00  6.283E+00
  1.501E-03  1.501E-03  0.000E+00  0.000E+00  6.283E+00  6.283E+00
  1.833E-03  1.833E-03  0.000E+00  0.000E+00  6.283E+00  6.283E+00
  2.240E-03  2.240E-03  0.000E+00  0.000E+00  6.283E+00  6.283E+00
  2.737E-03  2.737E-03  0.000E+00  0.000E+00  6.283E+00  6.283E+00
  3.344E-03  3.344E-03  0.000E+00  0.000E+00  6.283E+00  6.283E+00
  4.085E-03  4.085E-03  0.000E+00  0.000E+00  6.283E+00  6.283E+00
  4.991E-03  4.991E-03  0.000E+00  0.000E+00  6.283E+00  6.283E+00
  6.098E-03  6.098E-03  0.000E+00  0.000E+00  6.283E+00  6.283E+00
  7.450E-03  7.450E-03  0.000E+00  0.000E+00  6.283E+00  6.283E+00
  9.103E-03  9.103E-03  0.000E+00  0.000E+00  6.283E+00  6.283E+00
  1.112E-02  1.112E-02  0.000E+00  0.000E+00  6.283E+00  6.283E+00
  1.359E-02  1.359E-02  0.000E+00  0.000E+00  6.283E+00  6.283E+00
  1.660E-02  1.660E-02  0.000E+00  0.000E+00  6.283E+00  6.283E+00
  2.028E-02  2.028E-02  0.000E+00  0.000E+00  6.283E+00  6.283E+00
  2.478E-02  2.478E-02  0.000E+00  0.000E+00  6.283E+00  6.283E+00
  3.028E-02  3.028E-02  0.000E+00  0.000E+00  6.283E+00  6.283E+00
  3.699E-02  3.699E-02  0.000E+00  0.000E+00  6.283E+00  6.283E+00
  4.520E-02  4.520E-02  0.000E+00  0.000E+00  6.283E+00  6.283E+00
  5.522E-02  5.522E-02  0.000E+00  0.000E+00  6.283E+00  6.283E+00
  6.746E-02  6.746E-02  0.000E+00  0.000E+00  6.283E+00  6.283E+00
  8.243E-02  8.243E-02  0.000E+00  0.000E+00  6.283E+00  6.283E+00
  1.007E-01  1.007E-01  0.000E+00  0.000E+00  6.283E+00  6.283E+00
  1.230E-01  1.230E-01  0.000E+00  0.000E+00  6.283E+00  6.283E+00
  1.503E-01  1.503E-01  0.000E+00  0.000E+00  6.283E+00  6.283E+00
  1.837E-01  1.837E-01  0.000E+00  0.000E+00  6.283E+00  6.283E+00
  2.244E-01  2.244E-01  0.000E+00  0.000E+00  6.283E+00  6.283E+00
  2.742E-01  2.742E-01  0.000E+00  0.000E+00  6.283E+00  6.283E+00
  3.350E-01  3.350E-01  0.000E+00  0.000E+00  6.283E+00  6.283E+00
  4.092E-01  4.092E-01  0.000E+00  0.000E+00  6.283E+00  6.283E+00
  5.000E-01  5.000E-01  0.000E+00  0.000E+00  6.283E+00  6.283E+00
