 # Detector n:            1   BdxNeut   (integrated over solid angle)
 # N. of energy intervals         100
  1.000E-09  1.222E-09  1.320E-01  1.383E+01
  1.222E-09  1.493E-09  9.552E-02  2.545E+01
  1.493E-09  1.824E-09  6.754E-02  2.005E+01
  1.824E-09  2.228E-09  5.750E-02  2.711E+01
  2.228E-09  2.722E-09  7.474E-02  1.263E+01
  2.722E-09  3.326E-09  5.775E-02  3.080E+01
  3.326E-09  4.064E-09  4.799E-02  3.687E+01
  4.064E-09  4.965E-09  4.167E-02  2.090E+01
  4.965E-09  6.066E-09  3.375E-02  2.705E+01
  6.066E-09  7.411E-09  3.066E-02  1.539E+01
  7.411E-09  9.055E-09  1.106E-02  2.375E+01
  9.055E-09  1.106E-08  1.037E-02  2.288E+01
  1.106E-08  1.352E-08  1.391E-02  1.478E+01
  1.352E-08  1.651E-08  7.537E-03  2.065E+01
  1.651E-08  2.018E-08  8.344E-03  4.025E+01
  2.018E-08  2.465E-08  4.981E-03  1.026E+01
  2.465E-08  3.012E-08  4.309E-03  2.728E+01
  3.012E-08  3.680E-08  4.706E-03  3.649E+01
  3.680E-08  4.496E-08  3.101E-03  3.053E+01
  4.496E-08  5.493E-08  4.053E-03  4.112E+01
  5.493E-08  6.711E-08  2.294E-03  2.560E+01
  6.711E-08  8.199E-08  1.013E-03  2.399E+01
  8.199E-08  1.002E-07  9.259E-04  2.766E+01
  1.002E-07  1.224E-07  9.647E-04  3.976E+01
  1.224E-07  1.495E-07  4.780E-04  3.413E+01
  1.495E-07  1.827E-07  6.607E-04  2.944E+01
  1.827E-07  2.232E-07  3.571E-04  4.122E+01
  2.232E-07  2.727E-07  1.311E-04  4.659E+01
  2.727E-07  3.332E-07  1.035E-04  4.536E+01
  3.332E-07  4.071E-07  2.286E-04  4.367E+01
  4.071E-07  4.974E-07  8.904E-05  3.655E+01
  4.974E-07  6.077E-07  1.129E-04  3.580E+01
  6.077E-07  7.424E-07  4.229E-05  2.795E+01
  7.424E-07  9.071E-07  2.828E-05  4.705E+01
  9.071E-07  1.108E-06  2.596E-05  6.979E+01
  1.108E-06  1.354E-06  3.047E-05  4.875E+01
  1.354E-06  1.654E-06  2.880E-05  1.807E+01
  1.654E-06  2.021E-06  3.820E-06  9.900E+01
  2.021E-06  2.469E-06  9.711E-06  6.129E+01
  2.469E-06  3.017E-06  1.852E-06  9.900E+01
  3.017E-06  3.686E-06  6.945E-06  4.492E+01
  3.686E-06  4.504E-06  1.518E-06  9.900E+01
  4.504E-06  5.502E-06  3.807E-06  4.141E+01
  5.502E-06  6.723E-06  7.660E-06  4.405E+01
  6.723E-06  8.214E-06  0.000E+00  0.000E+00
  8.214E-06  1.004E-05  1.908E-06  9.900E+01
  1.004E-05  1.226E-05  4.514E-07  9.900E+01
  1.226E-05  1.498E-05  1.586E-06  7.125E+01
  1.498E-05  1.830E-05  1.023E-06  9.900E+01
  1.830E-05  2.236E-05  8.693E-07  4.084E+01
  2.236E-05  2.732E-05  8.533E-07  7.073E+01
  2.732E-05  3.338E-05  1.653E-07  9.900E+01
  3.338E-05  4.078E-05  1.682E-07  9.900E+01
  4.078E-05  4.982E-05  3.214E-07  6.327E+01
  4.982E-05  6.087E-05  4.688E-07  5.145E+01
  6.087E-05  7.437E-05  0.000E+00  0.000E+00
  7.437E-05  9.087E-05  0.000E+00  0.000E+00
  9.087E-05  1.110E-04  0.000E+00  0.000E+00
  1.110E-04  1.356E-04  0.000E+00  0.000E+00
  1.356E-04  1.657E-04  0.000E+00  0.000E+00
  1.657E-04  2.025E-04  0.000E+00  0.000E+00
  2.025E-04  2.474E-04  0.000E+00  0.000E+00
  2.474E-04  3.022E-04  0.000E+00  0.000E+00
  3.022E-04  3.693E-04  0.000E+00  0.000E+00
  3.693E-04  4.512E-04  0.000E+00  0.000E+00
  4.512E-04  5.512E-04  0.000E+00  0.000E+00
  5.512E-04  6.735E-04  0.000E+00  0.000E+00
  6.735E-04  8.228E-04  0.000E+00  0.000E+00
  8.228E-04  1.005E-03  0.000E+00  0.000E+00
  1.005E-03  1.228E-03  0.000E+00  0.000E+00
  1.228E-03  1.501E-03  0.000E+00  0.000E+00
  1.501E-03  1.833E-03  0.000E+00  0.000E+00
  1.833E-03  2.240E-03  0.000E+00  0.000E+00
  2.240E-03  2.737E-03  0.000E+00  0.000E+00
  2.737E-03  3.344E-03  0.000E+00  0.000E+00
  3.344E-03  4.085E-03  0.000E+00  0.000E+00
  4.085E-03  4.991E-03  0.000E+00  0.000E+00
  4.991E-03  6.098E-03  0.000E+00  0.000E+00
  6.098E-03  7.450E-03  0.000E+00  0.000E+00
  7.450E-03  9.103E-03  0.000E+00  0.000E+00
  9.103E-03  1.112E-02  0.000E+00  0.000E+00
  1.112E-02  1.359E-02  0.000E+00  0.000E+00
  1.359E-02  1.660E-02  0.000E+00  0.000E+00
  1.660E-02  2.028E-02  0.000E+00  0.000E+00
  2.028E-02  2.478E-02  0.000E+00  0.000E+00
  2.478E-02  3.028E-02  0.000E+00  0.000E+00
  3.028E-02  3.699E-02  0.000E+00  0.000E+00
  3.699E-02  4.520E-02  0.000E+00  0.000E+00
  4.520E-02  5.522E-02  0.000E+00  0.000E+00
  5.522E-02  6.746E-02  0.000E+00  0.000E+00
  6.746E-02  8.243E-02  0.000E+00  0.000E+00
  8.243E-02  1.007E-01  0.000E+00  0.000E+00
  1.007E-01  1.230E-01  0.000E+00  0.000E+00
  1.230E-01  1.503E-01  0.000E+00  0.000E+00
  1.503E-01  1.837E-01  0.000E+00  0.000E+00
  1.837E-01  2.244E-01  0.000E+00  0.000E+00
  2.244E-01  2.742E-01  0.000E+00  0.000E+00
  2.742E-01  3.350E-01  0.000E+00  0.000E+00
  3.350E-01  4.092E-01  0.000E+00  0.000E+00
  4.092E-01  5.000E-01  0.000E+00  0.000E+00


 # double differential distributions
 # number of solid angle intervals           1
 # Block n:            1     0.00000000      :   6.28318548    
  1.000E-09  1.222E-09  2.101E-02  1.383E+01  0.000E+00  6.283E+00
  1.222E-09  1.493E-09  1.520E-02  2.545E+01  0.000E+00  6.283E+00
  1.493E-09  1.824E-09  1.075E-02  2.005E+01  0.000E+00  6.283E+00
  1.824E-09  2.228E-09  9.152E-03  2.711E+01  0.000E+00  6.283E+00
  2.228E-09  2.722E-09  1.190E-02  1.263E+01  0.000E+00  6.283E+00
  2.722E-09  3.326E-09  9.192E-03  3.080E+01  0.000E+00  6.283E+00
  3.326E-09  4.064E-09  7.638E-03  3.687E+01  0.000E+00  6.283E+00
  4.064E-09  4.965E-09  6.632E-03  2.090E+01  0.000E+00  6.283E+00
  4.965E-09  6.066E-09  5.371E-03  2.705E+01  0.000E+00  6.283E+00
  6.066E-09  7.411E-09  4.880E-03  1.539E+01  0.000E+00  6.283E+00
  7.411E-09  9.055E-09  1.760E-03  2.375E+01  0.000E+00  6.283E+00
  9.055E-09  1.106E-08  1.651E-03  2.288E+01  0.000E+00  6.283E+00
  1.106E-08  1.352E-08  2.213E-03  1.478E+01  0.000E+00  6.283E+00
  1.352E-08  1.651E-08  1.200E-03  2.065E+01  0.000E+00  6.283E+00
  1.651E-08  2.018E-08  1.328E-03  4.025E+01  0.000E+00  6.283E+00
  2.018E-08  2.465E-08  7.927E-04  1.026E+01  0.000E+00  6.283E+00
  2.465E-08  3.012E-08  6.858E-04  2.728E+01  0.000E+00  6.283E+00
  3.012E-08  3.680E-08  7.490E-04  3.649E+01  0.000E+00  6.283E+00
  3.680E-08  4.496E-08  4.935E-04  3.053E+01  0.000E+00  6.283E+00
  4.496E-08  5.493E-08  6.451E-04  4.112E+01  0.000E+00  6.283E+00
  5.493E-08  6.711E-08  3.652E-04  2.560E+01  0.000E+00  6.283E+00
  6.711E-08  8.199E-08  1.612E-04  2.399E+01  0.000E+00  6.283E+00
  8.199E-08  1.002E-07  1.474E-04  2.766E+01  0.000E+00  6.283E+00
  1.002E-07  1.224E-07  1.535E-04  3.976E+01  0.000E+00  6.283E+00
  1.224E-07  1.495E-07  7.607E-05  3.413E+01  0.000E+00  6.283E+00
  1.495E-07  1.827E-07  1.052E-04  2.944E+01  0.000E+00  6.283E+00
  1.827E-07  2.232E-07  5.684E-05  4.122E+01  0.000E+00  6.283E+00
  2.232E-07  2.727E-07  2.087E-05  4.659E+01  0.000E+00  6.283E+00
  2.727E-07  3.332E-07  1.647E-05  4.536E+01  0.000E+00  6.283E+00
  3.332E-07  4.071E-07  3.638E-05  4.367E+01  0.000E+00  6.283E+00
  4.071E-07  4.974E-07  1.417E-05  3.655E+01  0.000E+00  6.283E+00
  4.974E-07  6.077E-07  1.797E-05  3.580E+01  0.000E+00  6.283E+00
  6.077E-07  7.424E-07  6.730E-06  2.795E+01  0.000E+00  6.283E+00
  7.424E-07  9.071E-07  4.501E-06  4.705E+01  0.000E+00  6.283E+00
  9.071E-07  1.108E-06  4.131E-06  6.979E+01  0.000E+00  6.283E+00
  1.108E-06  1.354E-06  4.849E-06  4.875E+01  0.000E+00  6.283E+00
  1.354E-06  1.654E-06  4.584E-06  1.807E+01  0.000E+00  6.283E+00
  1.654E-06  2.021E-06  6.080E-07  9.900E+01  0.000E+00  6.283E+00
  2.021E-06  2.469E-06  1.546E-06  6.129E+01  0.000E+00  6.283E+00
  2.469E-06  3.017E-06  2.947E-07  9.900E+01  0.000E+00  6.283E+00
  3.017E-06  3.686E-06  1.105E-06  4.492E+01  0.000E+00  6.283E+00
  3.686E-06  4.504E-06  2.415E-07  9.900E+01  0.000E+00  6.283E+00
  4.504E-06  5.502E-06  6.059E-07  4.141E+01  0.000E+00  6.283E+00
  5.502E-06  6.723E-06  1.219E-06  4.405E+01  0.000E+00  6.283E+00
  6.723E-06  8.214E-06  0.000E+00  0.000E+00  0.000E+00  6.283E+00
  8.214E-06  1.004E-05  3.036E-07  9.900E+01  0.000E+00  6.283E+00
  1.004E-05  1.226E-05  7.185E-08  9.900E+01  0.000E+00  6.283E+00
  1.226E-05  1.498E-05  2.525E-07  7.125E+01  0.000E+00  6.283E+00
  1.498E-05  1.830E-05  1.628E-07  9.900E+01  0.000E+00  6.283E+00
  1.830E-05  2.236E-05  1.383E-07  4.084E+01  0.000E+00  6.283E+00
  2.236E-05  2.732E-05  1.358E-07  7.073E+01  0.000E+00  6.283E+00
  2.732E-05  3.338E-05  2.631E-08  9.900E+01  0.000E+00  6.283E+00
  3.338E-05  4.078E-05  2.677E-08  9.900E+01  0.000E+00  6.283E+00
  4.078E-05  4.982E-05  5.115E-08  6.327E+01  0.000E+00  6.283E+00
  4.982E-05  6.087E-05  7.461E-08  5.145E+01  0.000E+00  6.283E+00
  6.087E-05  7.437E-05  0.000E+00  0.000E+00  0.000E+00  6.283E+00
  7.437E-05  9.087E-05  0.000E+00  0.000E+00  0.000E+00  6.283E+00
  9.087E-05  1.110E-04  0.000E+00  0.000E+00  0.000E+00  6.283E+00
  1.110E-04  1.356E-04  0.000E+00  0.000E+00  0.000E+00  6.283E+00
  1.356E-04  1.657E-04  0.000E+00  0.000E+00  0.000E+00  6.283E+00
  1.657E-04  2.025E-04  0.000E+00  0.000E+00  0.000E+00  6.283E+00
  2.025E-04  2.474E-04  0.000E+00  0.000E+00  0.000E+00  6.283E+00
  2.474E-04  3.022E-04  0.000E+00  0.000E+00  0.000E+00  6.283E+00
  3.022E-04  3.693E-04  0.000E+00  0.000E+00  0.000E+00  6.283E+00
  3.693E-04  4.512E-04  0.000E+00  0.000E+00  0.000E+00  6.283E+00
  4.512E-04  5.512E-04  0.000E+00  0.000E+00  0.000E+00  6.283E+00
  5.512E-04  6.735E-04  0.000E+00  0.000E+00  0.000E+00  6.283E+00
  6.735E-04  8.228E-04  0.000E+00  0.000E+00  0.000E+00  6.283E+00
  8.228E-04  1.005E-03  0.000E+00  0.000E+00  0.000E+00  6.283E+00
  1.005E-03  1.228E-03  0.000E+00  0.000E+00  0.000E+00  6.283E+00
  1.228E-03  1.501E-03  0.000E+00  0.000E+00  0.000E+00  6.283E+00
  1.501E-03  1.833E-03  0.000E+00  0.000E+00  0.000E+00  6.283E+00
  1.833E-03  2.240E-03  0.000E+00  0.000E+00  0.000E+00  6.283E+00
  2.240E-03  2.737E-03  0.000E+00  0.000E+00  0.000E+00  6.283E+00
  2.737E-03  3.344E-03  0.000E+00  0.000E+00  0.000E+00  6.283E+00
  3.344E-03  4.085E-03  0.000E+00  0.000E+00  0.000E+00  6.283E+00
  4.085E-03  4.991E-03  0.000E+00  0.000E+00  0.000E+00  6.283E+00
  4.991E-03  6.098E-03  0.000E+00  0.000E+00  0.000E+00  6.283E+00
  6.098E-03  7.450E-03  0.000E+00  0.000E+00  0.000E+00  6.283E+00
  7.450E-03  9.103E-03  0.000E+00  0.000E+00  0.000E+00  6.283E+00
  9.103E-03  1.112E-02  0.000E+00  0.000E+00  0.000E+00  6.283E+00
  1.112E-02  1.359E-02  0.000E+00  0.000E+00  0.000E+00  6.283E+00
  1.359E-02  1.660E-02  0.000E+00  0.000E+00  0.000E+00  6.283E+00
  1.660E-02  2.028E-02  0.000E+00  0.000E+00  0.000E+00  6.283E+00
  2.028E-02  2.478E-02  0.000E+00  0.000E+00  0.000E+00  6.283E+00
  2.478E-02  3.028E-02  0.000E+00  0.000E+00  0.000E+00  6.283E+00
  3.028E-02  3.699E-02  0.000E+00  0.000E+00  0.000E+00  6.283E+00
  3.699E-02  4.520E-02  0.000E+00  0.000E+00  0.000E+00  6.283E+00
  4.520E-02  5.522E-02  0.000E+00  0.000E+00  0.000E+00  6.283E+00
  5.522E-02  6.746E-02  0.000E+00  0.000E+00  0.000E+00  6.283E+00
  6.746E-02  8.243E-02  0.000E+00  0.000E+00  0.000E+00  6.283E+00
  8.243E-02  1.007E-01  0.000E+00  0.000E+00  0.000E+00  6.283E+00
  1.007E-01  1.230E-01  0.000E+00  0.000E+00  0.000E+00  6.283E+00
  1.230E-01  1.503E-01  0.000E+00  0.000E+00  0.000E+00  6.283E+00
  1.503E-01  1.837E-01  0.000E+00  0.000E+00  0.000E+00  6.283E+00
  1.837E-01  2.244E-01  0.000E+00  0.000E+00  0.000E+00  6.283E+00
  2.244E-01  2.742E-01  0.000E+00  0.000E+00  0.000E+00  6.283E+00
  2.742E-01  3.350E-01  0.000E+00  0.000E+00  0.000E+00  6.283E+00
  3.350E-01  4.092E-01  0.000E+00  0.000E+00  0.000E+00  6.283E+00
  4.092E-01  5.000E-01  0.000E+00  0.000E+00  0.000E+00  6.283E+00
  5.000E-01  5.000E-01  0.000E+00  0.000E+00  0.000E+00  6.283E+00

  1.000E-09  1.000E-09  0.000E+00  0.000E+00  6.283E+00  6.283E+00
  1.222E-09  1.222E-09  0.000E+00  0.000E+00  6.283E+00  6.283E+00
  1.493E-09  1.493E-09  0.000E+00  0.000E+00  6.283E+00  6.283E+00
  1.824E-09  1.824E-09  0.000E+00  0.000E+00  6.283E+00  6.283E+00
  2.228E-09  2.228E-09  0.000E+00  0.000E+00  6.283E+00  6.283E+00
  2.722E-09  2.722E-09  0.000E+00  0.000E+00  6.283E+00  6.283E+00
  3.326E-09  3.326E-09  0.000E+00  0.000E+00  6.283E+00  6.283E+00
  4.064E-09  4.064E-09  0.000E+00  0.000E+00  6.283E+00  6.283E+00
  4.965E-09  4.965E-09  0.000E+00  0.000E+00  6.283E+00  6.283E+00
  6.066E-09  6.066E-09  0.000E+00  0.000E+00  6.283E+00  6.283E+00
  7.411E-09  7.411E-09  0.000E+00  0.000E+00  6.283E+00  6.283E+00
  9.055E-09  9.055E-09  0.000E+00  0.000E+00  6.283E+00  6.283E+00
  1.106E-08  1.106E-08  0.000E+00  0.000E+00  6.283E+00  6.283E+00
  1.352E-08  1.352E-08  0.000E+00  0.000E+00  6.283E+00  6.283E+00
  1.651E-08  1.651E-08  0.000E+00  0.000E+00  6.283E+00  6.283E+00
  2.018E-08  2.018E-08  0.000E+00  0.000E+00  6.283E+00  6.283E+00
  2.465E-08  2.465E-08  0.000E+00  0.000E+00  6.283E+00  6.283E+00
  3.012E-08  3.012E-08  0.000E+00  0.000E+00  6.283E+00  6.283E+00
  3.680E-08  3.680E-08  0.000E+00  0.000E+00  6.283E+00  6.283E+00
  4.496E-08  4.496E-08  0.000E+00  0.000E+00  6.283E+00  6.283E+00
  5.493E-08  5.493E-08  0.000E+00  0.000E+00  6.283E+00  6.283E+00
  6.711E-08  6.711E-08  0.000E+00  0.000E+00  6.283E+00  6.283E+00
  8.199E-08  8.199E-08  0.000E+00  0.000E+00  6.283E+00  6.283E+00
  1.002E-07  1.002E-07  0.000E+00  0.000E+00  6.283E+00  6.283E+00
  1.224E-07  1.224E-07  0.000E+00  0.000E+00  6.283E+00  6.283E+00
  1.495E-07  1.495E-07  0.000E+00  0.000E+00  6.283E+00  6.283E+00
  1.827E-07  1.827E-07  0.000E+00  0.000E+00  6.283E+00  6.283E+00
  2.232E-07  2.232E-07  0.000E+00  0.000E+00  6.283E+00  6.283E+00
  2.727E-07  2.727E-07  0.000E+00  0.000E+00  6.283E+00  6.283E+00
  3.332E-07  3.332E-07  0.000E+00  0.000E+00  6.283E+00  6.283E+00
  4.071E-07  4.071E-07  0.000E+00  0.000E+00  6.283E+00  6.283E+00
  4.974E-07  4.974E-07  0.000E+00  0.000E+00  6.283E+00  6.283E+00
  6.077E-07  6.077E-07  0.000E+00  0.000E+00  6.283E+00  6.283E+00
  7.424E-07  7.424E-07  0.000E+00  0.000E+00  6.283E+00  6.283E+00
  9.071E-07  9.071E-07  0.000E+00  0.000E+00  6.283E+00  6.283E+00
  1.108E-06  1.108E-06  0.000E+00  0.000E+00  6.283E+00  6.283E+00
  1.354E-06  1.354E-06  0.000E+00  0.000E+00  6.283E+00  6.283E+00
  1.654E-06  1.654E-06  0.000E+00  0.000E+00  6.283E+00  6.283E+00
  2.021E-06  2.021E-06  0.000E+00  0.000E+00  6.283E+00  6.283E+00
  2.469E-06  2.469E-06  0.000E+00  0.000E+00  6.283E+00  6.283E+00
  3.017E-06  3.017E-06  0.000E+00  0.000E+00  6.283E+00  6.283E+00
  3.686E-06  3.686E-06  0.000E+00  0.000E+00  6.283E+00  6.283E+00
  4.504E-06  4.504E-06  0.000E+00  0.000E+00  6.283E+00  6.283E+00
  5.502E-06  5.502E-06  0.000E+00  0.000E+00  6.283E+00  6.283E+00
  6.723E-06  6.723E-06  0.000E+00  0.000E+00  6.283E+00  6.283E+00
  8.214E-06  8.214E-06  0.000E+00  0.000E+00  6.283E+00  6.283E+00
  1.004E-05  1.004E-05  0.000E+00  0.000E+00  6.283E+00  6.283E+00
  1.226E-05  1.226E-05  0.000E+00  0.000E+00  6.283E+00  6.283E+00
  1.498E-05  1.498E-05  0.000E+00  0.000E+00  6.283E+00  6.283E+00
  1.830E-05  1.830E-05  0.000E+00  0.000E+00  6.283E+00  6.283E+00
  2.236E-05  2.236E-05  0.000E+00  0.000E+00  6.283E+00  6.283E+00
  2.732E-05  2.732E-05  0.000E+00  0.000E+00  6.283E+00  6.283E+00
  3.338E-05  3.338E-05  0.000E+00  0.000E+00  6.283E+00  6.283E+00
  4.078E-05  4.078E-05  0.000E+00  0.000E+00  6.283E+00  6.283E+00
  4.982E-05  4.982E-05  0.000E+00  0.000E+00  6.283E+00  6.283E+00
  6.087E-05  6.087E-05  0.000E+00  0.000E+00  6.283E+00  6.283E+00
  7.437E-05  7.437E-05  0.000E+00  0.000E+00  6.283E+00  6.283E+00
  9.087E-05  9.087E-05  0.000E+00  0.000E+00  6.283E+00  6.283E+00
  1.110E-04  1.110E-04  0.000E+00  0.000E+00  6.283E+00  6.283E+00
  1.356E-04  1.356E-04  0.000E+00  0.000E+00  6.283E+00  6.283E+00
  1.657E-04  1.657E-04  0.000E+00  0.000E+00  6.283E+00  6.283E+00
  2.025E-04  2.025E-04  0.000E+00  0.000E+00  6.283E+00  6.283E+00
  2.474E-04  2.474E-04  0.000E+00  0.000E+00  6.283E+00  6.283E+00
  3.022E-04  3.022E-04  0.000E+00  0.000E+00  6.283E+00  6.283E+00
  3.693E-04  3.693E-04  0.000E+00  0.000E+00  6.283E+00  6.283E+00
  4.512E-04  4.512E-04  0.000E+00  0.000E+00  6.283E+00  6.283E+00
  5.512E-04  5.512E-04  0.000E+00  0.000E+00  6.283E+00  6.283E+00
  6.735E-04  6.735E-04  0.000E+00  0.000E+00  6.283E+00  6.283E+00
  8.228E-04  8.228E-04  0.000E+00  0.000E+00  6.283E+00  6.283E+00
  1.005E-03  1.005E-03  0.000E+00  0.000E+00  6.283E+00  6.283E+00
  1.228E-03  1.228E-03  0.000E+00  0.000E+00  6.283E+00  6.283E+00
  1.501E-03  1.501E-03  0.000E+00  0.000E+00  6.283E+00  6.283E+00
  1.833E-03  1.833E-03  0.000E+00  0.000E+00  6.283E+00  6.283E+00
  2.240E-03  2.240E-03  0.000E+00  0.000E+00  6.283E+00  6.283E+00
  2.737E-03  2.737E-03  0.000E+00  0.000E+00  6.283E+00  6.283E+00
  3.344E-03  3.344E-03  0.000E+00  0.000E+00  6.283E+00  6.283E+00
  4.085E-03  4.085E-03  0.000E+00  0.000E+00  6.283E+00  6.283E+00
  4.991E-03  4.991E-03  0.000E+00  0.000E+00  6.283E+00  6.283E+00
  6.098E-03  6.098E-03  0.000E+00  0.000E+00  6.283E+00  6.283E+00
  7.450E-03  7.450E-03  0.000E+00  0.000E+00  6.283E+00  6.283E+00
  9.103E-03  9.103E-03  0.000E+00  0.000E+00  6.283E+00  6.283E+00
  1.112E-02  1.112E-02  0.000E+00  0.000E+00  6.283E+00  6.283E+00
  1.359E-02  1.359E-02  0.000E+00  0.000E+00  6.283E+00  6.283E+00
  1.660E-02  1.660E-02  0.000E+00  0.000E+00  6.283E+00  6.283E+00
  2.028E-02  2.028E-02  0.000E+00  0.000E+00  6.283E+00  6.283E+00
  2.478E-02  2.478E-02  0.000E+00  0.000E+00  6.283E+00  6.283E+00
  3.028E-02  3.028E-02  0.000E+00  0.000E+00  6.283E+00  6.283E+00
  3.699E-02  3.699E-02  0.000E+00  0.000E+00  6.283E+00  6.283E+00
  4.520E-02  4.520E-02  0.000E+00  0.000E+00  6.283E+00  6.283E+00
  5.522E-02  5.522E-02  0.000E+00  0.000E+00  6.283E+00  6.283E+00
  6.746E-02  6.746E-02  0.000E+00  0.000E+00  6.283E+00  6.283E+00
  8.243E-02  8.243E-02  0.000E+00  0.000E+00  6.283E+00  6.283E+00
  1.007E-01  1.007E-01  0.000E+00  0.000E+00  6.283E+00  6.283E+00
  1.230E-01  1.230E-01  0.000E+00  0.000E+00  6.283E+00  6.283E+00
  1.503E-01  1.503E-01  0.000E+00  0.000E+00  6.283E+00  6.283E+00
  1.837E-01  1.837E-01  0.000E+00  0.000E+00  6.283E+00  6.283E+00
  2.244E-01  2.244E-01  0.000E+00  0.000E+00  6.283E+00  6.283E+00
  2.742E-01  2.742E-01  0.000E+00  0.000E+00  6.283E+00  6.283E+00
  3.350E-01  3.350E-01  0.000E+00  0.000E+00  6.283E+00  6.283E+00
  4.092E-01  4.092E-01  0.000E+00  0.000E+00  6.283E+00  6.283E+00
  5.000E-01  5.000E-01  0.000E+00  0.000E+00  6.283E+00  6.283E+00
