 # Detector n:            1   BdxPhot   (integrated over solid angle)
 # N. of energy intervals         100
  1.000E-04  1.089E-04  2.450E-03  3.536E+00
  1.089E-04  1.186E-04  2.513E-03  3.063E+00
  1.186E-04  1.291E-04  2.417E-03  5.025E+00
  1.291E-04  1.406E-04  2.224E-03  1.718E+00
  1.406E-04  1.531E-04  2.081E-03  3.971E+00
  1.531E-04  1.667E-04  2.024E-03  2.304E+00
  1.667E-04  1.815E-04  2.437E-03  1.430E+00
  1.815E-04  1.977E-04  2.068E-03  3.671E+00
  1.977E-04  2.152E-04  2.047E-03  5.424E+00
  2.152E-04  2.344E-04  1.636E-03  5.062E+00
  2.344E-04  2.552E-04  1.510E-03  1.698E+00
  2.552E-04  2.779E-04  1.375E-03  4.244E+00
  2.779E-04  3.026E-04  1.260E-03  3.211E+00
  3.026E-04  3.295E-04  1.185E-03  3.419E+00
  3.295E-04  3.588E-04  1.187E-03  4.225E+00
  3.588E-04  3.907E-04  1.142E-03  1.952E+00
  3.907E-04  4.254E-04  1.247E-03  1.352E+00
  4.254E-04  4.632E-04  1.378E-03  2.809E+00
  4.632E-04  5.044E-04  8.266E-03  1.049E+00
  5.044E-04  5.493E-04  2.517E-04  7.623E+00
  5.493E-04  5.981E-04  1.196E-04  1.082E+01
  5.981E-04  6.513E-04  1.143E-04  1.108E+01
  6.513E-04  7.092E-04  1.597E-04  6.738E+00
  7.092E-04  7.722E-04  4.787E-04  1.949E+00
  7.722E-04  8.409E-04  6.112E-05  1.174E+01
  8.409E-04  9.157E-04  6.067E-05  8.122E+00
  9.157E-04  9.971E-04  1.475E-04  5.675E+00
  9.971E-04  1.086E-03  1.557E-04  4.995E+00
  1.086E-03  1.182E-03  4.852E-05  6.390E+00
  1.182E-03  1.287E-03  4.932E-05  8.706E+00
  1.287E-03  1.402E-03  1.175E-04  1.817E+01
  1.402E-03  1.526E-03  1.065E-04  5.259E+00
  1.526E-03  1.662E-03  4.117E-05  3.262E+00
  1.662E-03  1.810E-03  4.047E-05  6.422E+00
  1.810E-03  1.971E-03  3.886E-05  6.851E+00
  1.971E-03  2.146E-03  1.790E-04  4.251E+00
  2.146E-03  2.337E-03  1.831E-04  4.047E+00
  2.337E-03  2.545E-03  2.864E-05  8.339E+00
  2.545E-03  2.771E-03  4.966E-05  5.294E+00
  2.771E-03  3.017E-03  8.125E-05  8.698E+00
  3.017E-03  3.285E-03  2.654E-05  1.622E+01
  3.285E-03  3.577E-03  1.165E-04  1.332E+01
  3.577E-03  3.895E-03  2.257E-05  6.918E+00
  3.895E-03  4.242E-03  1.560E-05  8.332E+00
  4.242E-03  4.619E-03  3.037E-04  2.450E+00
  4.619E-03  5.030E-03  4.072E-05  5.936E+00
  5.030E-03  5.477E-03  1.699E-05  7.718E+00
  5.477E-03  5.964E-03  1.589E-05  6.964E+00
  5.964E-03  6.494E-03  1.983E-05  7.741E+00
  6.494E-03  7.071E-03  3.248E-05  6.819E+00
  7.071E-03  7.700E-03  1.787E-05  7.671E+00
  7.700E-03  8.384E-03  7.895E-06  1.200E+01
  8.384E-03  9.130E-03  1.800E-05  2.185E+01
  9.130E-03  9.941E-03  4.090E-06  1.652E+01
  9.941E-03  1.083E-02  1.498E-07  9.900E+01
  1.083E-02  1.179E-02  0.000E+00  0.000E+00
  1.179E-02  1.284E-02  4.609E-08  6.985E+01
  1.284E-02  1.398E-02  3.937E-08  6.984E+01
  1.398E-02  1.522E-02  1.900E-07  3.561E+01
  1.522E-02  1.657E-02  4.090E-08  5.585E+01
  1.657E-02  1.805E-02  1.827E-08  9.900E+01
  1.805E-02  1.965E-02  2.735E-08  9.900E+01
  1.965E-02  2.140E-02  2.780E-08  9.900E+01
  2.140E-02  2.330E-02  7.399E-09  9.900E+01
  2.330E-02  2.537E-02  0.000E+00  0.000E+00
  2.537E-02  2.763E-02  0.000E+00  0.000E+00
  2.763E-02  3.008E-02  0.000E+00  0.000E+00
  3.008E-02  3.276E-02  0.000E+00  0.000E+00
  3.276E-02  3.567E-02  0.000E+00  0.000E+00
  3.567E-02  3.884E-02  2.643E-08  9.900E+01
  3.884E-02  4.229E-02  9.991E-09  9.900E+01
  4.229E-02  4.605E-02  1.133E-08  4.318E+01
  4.605E-02  5.015E-02  1.685E-08  5.614E+01
  5.015E-02  5.461E-02  9.083E-09  6.352E+01
  5.461E-02  5.946E-02  3.179E-08  3.538E+01
  5.946E-02  6.475E-02  8.751E-08  5.454E+01
  6.475E-02  7.050E-02  4.850E-08  3.643E+01
  7.050E-02  7.677E-02  4.960E-08  4.053E+01
  7.677E-02  8.360E-02  2.427E-08  2.080E+01
  8.360E-02  9.103E-02  3.481E-08  6.939E+01
  9.103E-02  9.912E-02  3.435E-09  6.277E+01
  9.912E-02  1.079E-01  3.549E-09  9.900E+01
  1.079E-01  1.175E-01  9.421E-09  4.202E+01
  1.175E-01  1.280E-01  6.192E-09  6.291E+01
  1.280E-01  1.394E-01  1.420E-08  4.782E+01
  1.394E-01  1.517E-01  0.000E+00  0.000E+00
  1.517E-01  1.652E-01  0.000E+00  0.000E+00
  1.652E-01  1.799E-01  0.000E+00  0.000E+00
  1.799E-01  1.959E-01  0.000E+00  0.000E+00
  1.959E-01  2.133E-01  0.000E+00  0.000E+00
  2.133E-01  2.323E-01  0.000E+00  0.000E+00
  2.323E-01  2.530E-01  0.000E+00  0.000E+00
  2.530E-01  2.754E-01  0.000E+00  0.000E+00
  2.754E-01  2.999E-01  0.000E+00  0.000E+00
  2.999E-01  3.266E-01  0.000E+00  0.000E+00
  3.266E-01  3.556E-01  0.000E+00  0.000E+00
  3.556E-01  3.873E-01  0.000E+00  0.000E+00
  3.873E-01  4.217E-01  0.000E+00  0.000E+00
  4.217E-01  4.592E-01  0.000E+00  0.000E+00
  4.592E-01  5.000E-01  0.000E+00  0.000E+00


 # double differential distributions
 # number of solid angle intervals           1
 # Block n:            1     0.00000000      :   6.28318548    
  1.000E-04  1.089E-04  3.899E-04  3.536E+00  0.000E+00  6.283E+00
  1.089E-04  1.186E-04  4.000E-04  3.063E+00  0.000E+00  6.283E+00
  1.186E-04  1.291E-04  3.846E-04  5.025E+00  0.000E+00  6.283E+00
  1.291E-04  1.406E-04  3.540E-04  1.718E+00  0.000E+00  6.283E+00
  1.406E-04  1.531E-04  3.312E-04  3.971E+00  0.000E+00  6.283E+00
  1.531E-04  1.667E-04  3.221E-04  2.304E+00  0.000E+00  6.283E+00
  1.667E-04  1.815E-04  3.878E-04  1.430E+00  0.000E+00  6.283E+00
  1.815E-04  1.977E-04  3.291E-04  3.671E+00  0.000E+00  6.283E+00
  1.977E-04  2.152E-04  3.258E-04  5.424E+00  0.000E+00  6.283E+00
  2.152E-04  2.344E-04  2.603E-04  5.062E+00  0.000E+00  6.283E+00
  2.344E-04  2.552E-04  2.403E-04  1.698E+00  0.000E+00  6.283E+00
  2.552E-04  2.779E-04  2.188E-04  4.244E+00  0.000E+00  6.283E+00
  2.779E-04  3.026E-04  2.006E-04  3.211E+00  0.000E+00  6.283E+00
  3.026E-04  3.295E-04  1.887E-04  3.419E+00  0.000E+00  6.283E+00
  3.295E-04  3.588E-04  1.889E-04  4.225E+00  0.000E+00  6.283E+00
  3.588E-04  3.907E-04  1.817E-04  1.952E+00  0.000E+00  6.283E+00
  3.907E-04  4.254E-04  1.985E-04  1.352E+00  0.000E+00  6.283E+00
  4.254E-04  4.632E-04  2.194E-04  2.809E+00  0.000E+00  6.283E+00
  4.632E-04  5.044E-04  1.316E-03  1.049E+00  0.000E+00  6.283E+00
  5.044E-04  5.493E-04  4.005E-05  7.623E+00  0.000E+00  6.283E+00
  5.493E-04  5.981E-04  1.904E-05  1.082E+01  0.000E+00  6.283E+00
  5.981E-04  6.513E-04  1.818E-05  1.108E+01  0.000E+00  6.283E+00
  6.513E-04  7.092E-04  2.542E-05  6.738E+00  0.000E+00  6.283E+00
  7.092E-04  7.722E-04  7.619E-05  1.949E+00  0.000E+00  6.283E+00
  7.722E-04  8.409E-04  9.728E-06  1.174E+01  0.000E+00  6.283E+00
  8.409E-04  9.157E-04  9.655E-06  8.122E+00  0.000E+00  6.283E+00
  9.157E-04  9.971E-04  2.347E-05  5.675E+00  0.000E+00  6.283E+00
  9.971E-04  1.086E-03  2.477E-05  4.995E+00  0.000E+00  6.283E+00
  1.086E-03  1.182E-03  7.723E-06  6.390E+00  0.000E+00  6.283E+00
  1.182E-03  1.287E-03  7.850E-06  8.706E+00  0.000E+00  6.283E+00
  1.287E-03  1.402E-03  1.870E-05  1.817E+01  0.000E+00  6.283E+00
  1.402E-03  1.526E-03  1.695E-05  5.259E+00  0.000E+00  6.283E+00
  1.526E-03  1.662E-03  6.553E-06  3.262E+00  0.000E+00  6.283E+00
  1.662E-03  1.810E-03  6.441E-06  6.422E+00  0.000E+00  6.283E+00
  1.810E-03  1.971E-03  6.184E-06  6.851E+00  0.000E+00  6.283E+00
  1.971E-03  2.146E-03  2.849E-05  4.251E+00  0.000E+00  6.283E+00
  2.146E-03  2.337E-03  2.914E-05  4.047E+00  0.000E+00  6.283E+00
  2.337E-03  2.545E-03  4.558E-06  8.339E+00  0.000E+00  6.283E+00
  2.545E-03  2.771E-03  7.903E-06  5.294E+00  0.000E+00  6.283E+00
  2.771E-03  3.017E-03  1.293E-05  8.698E+00  0.000E+00  6.283E+00
  3.017E-03  3.285E-03  4.224E-06  1.622E+01  0.000E+00  6.283E+00
  3.285E-03  3.577E-03  1.853E-05  1.332E+01  0.000E+00  6.283E+00
  3.577E-03  3.895E-03  3.592E-06  6.918E+00  0.000E+00  6.283E+00
  3.895E-03  4.242E-03  2.483E-06  8.332E+00  0.000E+00  6.283E+00
  4.242E-03  4.619E-03  4.833E-05  2.450E+00  0.000E+00  6.283E+00
  4.619E-03  5.030E-03  6.481E-06  5.936E+00  0.000E+00  6.283E+00
  5.030E-03  5.477E-03  2.704E-06  7.718E+00  0.000E+00  6.283E+00
  5.477E-03  5.964E-03  2.529E-06  6.964E+00  0.000E+00  6.283E+00
  5.964E-03  6.494E-03  3.156E-06  7.741E+00  0.000E+00  6.283E+00
  6.494E-03  7.071E-03  5.169E-06  6.819E+00  0.000E+00  6.283E+00
  7.071E-03  7.700E-03  2.844E-06  7.671E+00  0.000E+00  6.283E+00
  7.700E-03  8.384E-03  1.256E-06  1.200E+01  0.000E+00  6.283E+00
  8.384E-03  9.130E-03  2.865E-06  2.185E+01  0.000E+00  6.283E+00
  9.130E-03  9.941E-03  6.510E-07  1.652E+01  0.000E+00  6.283E+00
  9.941E-03  1.083E-02  2.384E-08  9.900E+01  0.000E+00  6.283E+00
  1.083E-02  1.179E-02  0.000E+00  0.000E+00  0.000E+00  6.283E+00
  1.179E-02  1.284E-02  7.335E-09  6.985E+01  0.000E+00  6.283E+00
  1.284E-02  1.398E-02  6.267E-09  6.984E+01  0.000E+00  6.283E+00
  1.398E-02  1.522E-02  3.024E-08  3.561E+01  0.000E+00  6.283E+00
  1.522E-02  1.657E-02  6.510E-09  5.585E+01  0.000E+00  6.283E+00
  1.657E-02  1.805E-02  2.908E-09  9.900E+01  0.000E+00  6.283E+00
  1.805E-02  1.965E-02  4.353E-09  9.900E+01  0.000E+00  6.283E+00
  1.965E-02  2.140E-02  4.424E-09  9.900E+01  0.000E+00  6.283E+00
  2.140E-02  2.330E-02  1.178E-09  9.900E+01  0.000E+00  6.283E+00
  2.330E-02  2.537E-02  0.000E+00  0.000E+00  0.000E+00  6.283E+00
  2.537E-02  2.763E-02  0.000E+00  0.000E+00  0.000E+00  6.283E+00
  2.763E-02  3.008E-02  0.000E+00  0.000E+00  0.000E+00  6.283E+00
  3.008E-02  3.276E-02  0.000E+00  0.000E+00  0.000E+00  6.283E+00
  3.276E-02  3.567E-02  0.000E+00  0.000E+00  0.000E+00  6.283E+00
  3.567E-02  3.884E-02  4.207E-09  9.900E+01  0.000E+00  6.283E+00
  3.884E-02  4.229E-02  1.590E-09  9.900E+01  0.000E+00  6.283E+00
  4.229E-02  4.605E-02  1.803E-09  4.318E+01  0.000E+00  6.283E+00
  4.605E-02  5.015E-02  2.681E-09  5.614E+01  0.000E+00  6.283E+00
  5.015E-02  5.461E-02  1.446E-09  6.352E+01  0.000E+00  6.283E+00
  5.461E-02  5.946E-02  5.060E-09  3.538E+01  0.000E+00  6.283E+00
  5.946E-02  6.475E-02  1.393E-08  5.454E+01  0.000E+00  6.283E+00
  6.475E-02  7.050E-02  7.718E-09  3.643E+01  0.000E+00  6.283E+00
  7.050E-02  7.677E-02  7.894E-09  4.053E+01  0.000E+00  6.283E+00
  7.677E-02  8.360E-02  3.862E-09  2.080E+01  0.000E+00  6.283E+00
  8.360E-02  9.103E-02  5.541E-09  6.939E+01  0.000E+00  6.283E+00
  9.103E-02  9.912E-02  5.467E-10  6.277E+01  0.000E+00  6.283E+00
  9.912E-02  1.079E-01  5.649E-10  9.900E+01  0.000E+00  6.283E+00
  1.079E-01  1.175E-01  1.499E-09  4.202E+01  0.000E+00  6.283E+00
  1.175E-01  1.280E-01  9.855E-10  6.291E+01  0.000E+00  6.283E+00
  1.280E-01  1.394E-01  2.260E-09  4.782E+01  0.000E+00  6.283E+00
  1.394E-01  1.517E-01  0.000E+00  0.000E+00  0.000E+00  6.283E+00
  1.517E-01  1.652E-01  0.000E+00  0.000E+00  0.000E+00  6.283E+00
  1.652E-01  1.799E-01  0.000E+00  0.000E+00  0.000E+00  6.283E+00
  1.799E-01  1.959E-01  0.000E+00  0.000E+00  0.000E+00  6.283E+00
  1.959E-01  2.133E-01  0.000E+00  0.000E+00  0.000E+00  6.283E+00
  2.133E-01  2.323E-01  0.000E+00  0.000E+00  0.000E+00  6.283E+00
  2.323E-01  2.530E-01  0.000E+00  0.000E+00  0.000E+00  6.283E+00
  2.530E-01  2.754E-01  0.000E+00  0.000E+00  0.000E+00  6.283E+00
  2.754E-01  2.999E-01  0.000E+00  0.000E+00  0.000E+00  6.283E+00
  2.999E-01  3.266E-01  0.000E+00  0.000E+00  0.000E+00  6.283E+00
  3.266E-01  3.556E-01  0.000E+00  0.000E+00  0.000E+00  6.283E+00
  3.556E-01  3.873E-01  0.000E+00  0.000E+00  0.000E+00  6.283E+00
  3.873E-01  4.217E-01  0.000E+00  0.000E+00  0.000E+00  6.283E+00
  4.217E-01  4.592E-01  0.000E+00  0.000E+00  0.000E+00  6.283E+00
  4.592E-01  5.000E-01  0.000E+00  0.000E+00  0.000E+00  6.283E+00
  5.000E-01  5.000E-01  0.000E+00  0.000E+00  0.000E+00  6.283E+00

  1.000E-04  1.000E-04  0.000E+00  0.000E+00  6.283E+00  6.283E+00
  1.089E-04  1.089E-04  0.000E+00  0.000E+00  6.283E+00  6.283E+00
  1.186E-04  1.186E-04  0.000E+00  0.000E+00  6.283E+00  6.283E+00
  1.291E-04  1.291E-04  0.000E+00  0.000E+00  6.283E+00  6.283E+00
  1.406E-04  1.406E-04  0.000E+00  0.000E+00  6.283E+00  6.283E+00
  1.531E-04  1.531E-04  0.000E+00  0.000E+00  6.283E+00  6.283E+00
  1.667E-04  1.667E-04  0.000E+00  0.000E+00  6.283E+00  6.283E+00
  1.815E-04  1.815E-04  0.000E+00  0.000E+00  6.283E+00  6.283E+00
  1.977E-04  1.977E-04  0.000E+00  0.000E+00  6.283E+00  6.283E+00
  2.152E-04  2.152E-04  0.000E+00  0.000E+00  6.283E+00  6.283E+00
  2.344E-04  2.344E-04  0.000E+00  0.000E+00  6.283E+00  6.283E+00
  2.552E-04  2.552E-04  0.000E+00  0.000E+00  6.283E+00  6.283E+00
  2.779E-04  2.779E-04  0.000E+00  0.000E+00  6.283E+00  6.283E+00
  3.026E-04  3.026E-04  0.000E+00  0.000E+00  6.283E+00  6.283E+00
  3.295E-04  3.295E-04  0.000E+00  0.000E+00  6.283E+00  6.283E+00
  3.588E-04  3.588E-04  0.000E+00  0.000E+00  6.283E+00  6.283E+00
  3.907E-04  3.907E-04  0.000E+00  0.000E+00  6.283E+00  6.283E+00
  4.254E-04  4.254E-04  0.000E+00  0.000E+00  6.283E+00  6.283E+00
  4.632E-04  4.632E-04  0.000E+00  0.000E+00  6.283E+00  6.283E+00
  5.044E-04  5.044E-04  0.000E+00  0.000E+00  6.283E+00  6.283E+00
  5.493E-04  5.493E-04  0.000E+00  0.000E+00  6.283E+00  6.283E+00
  5.981E-04  5.981E-04  0.000E+00  0.000E+00  6.283E+00  6.283E+00
  6.513E-04  6.513E-04  0.000E+00  0.000E+00  6.283E+00  6.283E+00
  7.092E-04  7.092E-04  0.000E+00  0.000E+00  6.283E+00  6.283E+00
  7.722E-04  7.722E-04  0.000E+00  0.000E+00  6.283E+00  6.283E+00
  8.409E-04  8.409E-04  0.000E+00  0.000E+00  6.283E+00  6.283E+00
  9.157E-04  9.157E-04  0.000E+00  0.000E+00  6.283E+00  6.283E+00
  9.971E-04  9.971E-04  0.000E+00  0.000E+00  6.283E+00  6.283E+00
  1.086E-03  1.086E-03  0.000E+00  0.000E+00  6.283E+00  6.283E+00
  1.182E-03  1.182E-03  0.000E+00  0.000E+00  6.283E+00  6.283E+00
  1.287E-03  1.287E-03  0.000E+00  0.000E+00  6.283E+00  6.283E+00
  1.402E-03  1.402E-03  0.000E+00  0.000E+00  6.283E+00  6.283E+00
  1.526E-03  1.526E-03  0.000E+00  0.000E+00  6.283E+00  6.283E+00
  1.662E-03  1.662E-03  0.000E+00  0.000E+00  6.283E+00  6.283E+00
  1.810E-03  1.810E-03  0.000E+00  0.000E+00  6.283E+00  6.283E+00
  1.971E-03  1.971E-03  0.000E+00  0.000E+00  6.283E+00  6.283E+00
  2.146E-03  2.146E-03  0.000E+00  0.000E+00  6.283E+00  6.283E+00
  2.337E-03  2.337E-03  0.000E+00  0.000E+00  6.283E+00  6.283E+00
  2.545E-03  2.545E-03  0.000E+00  0.000E+00  6.283E+00  6.283E+00
  2.771E-03  2.771E-03  0.000E+00  0.000E+00  6.283E+00  6.283E+00
  3.017E-03  3.017E-03  0.000E+00  0.000E+00  6.283E+00  6.283E+00
  3.285E-03  3.285E-03  0.000E+00  0.000E+00  6.283E+00  6.283E+00
  3.577E-03  3.577E-03  0.000E+00  0.000E+00  6.283E+00  6.283E+00
  3.895E-03  3.895E-03  0.000E+00  0.000E+00  6.283E+00  6.283E+00
  4.242E-03  4.242E-03  0.000E+00  0.000E+00  6.283E+00  6.283E+00
  4.619E-03  4.619E-03  0.000E+00  0.000E+00  6.283E+00  6.283E+00
  5.030E-03  5.030E-03  0.000E+00  0.000E+00  6.283E+00  6.283E+00
  5.477E-03  5.477E-03  0.000E+00  0.000E+00  6.283E+00  6.283E+00
  5.964E-03  5.964E-03  0.000E+00  0.000E+00  6.283E+00  6.283E+00
  6.494E-03  6.494E-03  0.000E+00  0.000E+00  6.283E+00  6.283E+00
  7.071E-03  7.071E-03  0.000E+00  0.000E+00  6.283E+00  6.283E+00
  7.700E-03  7.700E-03  0.000E+00  0.000E+00  6.283E+00  6.283E+00
  8.384E-03  8.384E-03  0.000E+00  0.000E+00  6.283E+00  6.283E+00
  9.130E-03  9.130E-03  0.000E+00  0.000E+00  6.283E+00  6.283E+00
  9.941E-03  9.941E-03  0.000E+00  0.000E+00  6.283E+00  6.283E+00
  1.083E-02  1.083E-02  0.000E+00  0.000E+00  6.283E+00  6.283E+00
  1.179E-02  1.179E-02  0.000E+00  0.000E+00  6.283E+00  6.283E+00
  1.284E-02  1.284E-02  0.000E+00  0.000E+00  6.283E+00  6.283E+00
  1.398E-02  1.398E-02  0.000E+00  0.000E+00  6.283E+00  6.283E+00
  1.522E-02  1.522E-02  0.000E+00  0.000E+00  6.283E+00  6.283E+00
  1.657E-02  1.657E-02  0.000E+00  0.000E+00  6.283E+00  6.283E+00
  1.805E-02  1.805E-02  0.000E+00  0.000E+00  6.283E+00  6.283E+00
  1.965E-02  1.965E-02  0.000E+00  0.000E+00  6.283E+00  6.283E+00
  2.140E-02  2.140E-02  0.000E+00  0.000E+00  6.283E+00  6.283E+00
  2.330E-02  2.330E-02  0.000E+00  0.000E+00  6.283E+00  6.283E+00
  2.537E-02  2.537E-02  0.000E+00  0.000E+00  6.283E+00  6.283E+00
  2.763E-02  2.763E-02  0.000E+00  0.000E+00  6.283E+00  6.283E+00
  3.008E-02  3.008E-02  0.000E+00  0.000E+00  6.283E+00  6.283E+00
  3.276E-02  3.276E-02  0.000E+00  0.000E+00  6.283E+00  6.283E+00
  3.567E-02  3.567E-02  0.000E+00  0.000E+00  6.283E+00  6.283E+00
  3.884E-02  3.884E-02  0.000E+00  0.000E+00  6.283E+00  6.283E+00
  4.229E-02  4.229E-02  0.000E+00  0.000E+00  6.283E+00  6.283E+00
  4.605E-02  4.605E-02  0.000E+00  0.000E+00  6.283E+00  6.283E+00
  5.015E-02  5.015E-02  0.000E+00  0.000E+00  6.283E+00  6.283E+00
  5.461E-02  5.461E-02  0.000E+00  0.000E+00  6.283E+00  6.283E+00
  5.946E-02  5.946E-02  0.000E+00  0.000E+00  6.283E+00  6.283E+00
  6.475E-02  6.475E-02  0.000E+00  0.000E+00  6.283E+00  6.283E+00
  7.050E-02  7.050E-02  0.000E+00  0.000E+00  6.283E+00  6.283E+00
  7.677E-02  7.677E-02  0.000E+00  0.000E+00  6.283E+00  6.283E+00
  8.360E-02  8.360E-02  0.000E+00  0.000E+00  6.283E+00  6.283E+00
  9.103E-02  9.103E-02  0.000E+00  0.000E+00  6.283E+00  6.283E+00
  9.912E-02  9.912E-02  0.000E+00  0.000E+00  6.283E+00  6.283E+00
  1.079E-01  1.079E-01  0.000E+00  0.000E+00  6.283E+00  6.283E+00
  1.175E-01  1.175E-01  0.000E+00  0.000E+00  6.283E+00  6.283E+00
  1.280E-01  1.280E-01  0.000E+00  0.000E+00  6.283E+00  6.283E+00
  1.394E-01  1.394E-01  0.000E+00  0.000E+00  6.283E+00  6.283E+00
  1.517E-01  1.517E-01  0.000E+00  0.000E+00  6.283E+00  6.283E+00
  1.652E-01  1.652E-01  0.000E+00  0.000E+00  6.283E+00  6.283E+00
  1.799E-01  1.799E-01  0.000E+00  0.000E+00  6.283E+00  6.283E+00
  1.959E-01  1.959E-01  0.000E+00  0.000E+00  6.283E+00  6.283E+00
  2.133E-01  2.133E-01  0.000E+00  0.000E+00  6.283E+00  6.283E+00
  2.323E-01  2.323E-01  0.000E+00  0.000E+00  6.283E+00  6.283E+00
  2.530E-01  2.530E-01  0.000E+00  0.000E+00  6.283E+00  6.283E+00
  2.754E-01  2.754E-01  0.000E+00  0.000E+00  6.283E+00  6.283E+00
  2.999E-01  2.999E-01  0.000E+00  0.000E+00  6.283E+00  6.283E+00
  3.266E-01  3.266E-01  0.000E+00  0.000E+00  6.283E+00  6.283E+00
  3.556E-01  3.556E-01  0.000E+00  0.000E+00  6.283E+00  6.283E+00
  3.873E-01  3.873E-01  0.000E+00  0.000E+00  6.283E+00  6.283E+00
  4.217E-01  4.217E-01  0.000E+00  0.000E+00  6.283E+00  6.283E+00
  4.592E-01  4.592E-01  0.000E+00  0.000E+00  6.283E+00  6.283E+00
  5.000E-01  5.000E-01  0.000E+00  0.000E+00  6.283E+00  6.283E+00
