 # Detector n:            1   BdxPhot   (integrated over solid angle)
 # N. of energy intervals         100
  1.000E-04  1.089E-04  2.397E-03  1.826E+00
  1.089E-04  1.186E-04  2.494E-03  3.730E+00
  1.186E-04  1.291E-04  2.291E-03  1.207E+00
  1.291E-04  1.406E-04  2.151E-03  2.355E+00
  1.406E-04  1.531E-04  2.038E-03  4.160E+00
  1.531E-04  1.667E-04  1.934E-03  1.386E+00
  1.667E-04  1.815E-04  2.369E-03  4.261E+00
  1.815E-04  1.977E-04  2.228E-03  3.369E+00
  1.977E-04  2.152E-04  2.045E-03  5.069E+00
  2.152E-04  2.344E-04  1.720E-03  4.559E+00
  2.344E-04  2.552E-04  1.624E-03  1.038E+01
  2.552E-04  2.779E-04  1.332E-03  5.688E+00
  2.779E-04  3.026E-04  1.263E-03  2.795E+00
  3.026E-04  3.295E-04  1.197E-03  4.313E+00
  3.295E-04  3.588E-04  1.104E-03  4.600E+00
  3.588E-04  3.907E-04  1.132E-03  2.072E+00
  3.907E-04  4.254E-04  1.253E-03  2.875E+00
  4.254E-04  4.632E-04  1.323E-03  2.099E+00
  4.632E-04  5.044E-04  8.342E-03  1.575E+00
  5.044E-04  5.493E-04  2.456E-04  3.312E+00
  5.493E-04  5.981E-04  1.352E-04  5.535E+00
  5.981E-04  6.513E-04  9.944E-05  5.164E+00
  6.513E-04  7.092E-04  1.738E-04  8.417E+00
  7.092E-04  7.722E-04  4.600E-04  5.418E+00
  7.722E-04  8.409E-04  7.106E-05  8.152E+00
  8.409E-04  9.157E-04  6.672E-05  8.881E+00
  9.157E-04  9.971E-04  1.671E-04  4.356E+00
  9.971E-04  1.086E-03  1.523E-04  4.809E+00
  1.086E-03  1.182E-03  4.886E-05  5.544E+00
  1.182E-03  1.287E-03  4.490E-05  1.013E+01
  1.287E-03  1.402E-03  9.545E-05  3.265E+00
  1.402E-03  1.526E-03  9.870E-05  8.315E+00
  1.526E-03  1.662E-03  4.216E-05  6.672E+00
  1.662E-03  1.810E-03  5.285E-05  1.637E+01
  1.810E-03  1.971E-03  3.753E-05  1.031E+01
  1.971E-03  2.146E-03  2.064E-04  1.038E+01
  2.146E-03  2.337E-03  1.812E-04  1.287E+00
  2.337E-03  2.545E-03  2.421E-05  1.392E+01
  2.545E-03  2.771E-03  4.788E-05  9.197E+00
  2.771E-03  3.017E-03  8.795E-05  5.205E+00
  3.017E-03  3.285E-03  2.324E-05  9.439E+00
  3.285E-03  3.577E-03  1.025E-04  4.844E+00
  3.577E-03  3.895E-03  2.071E-05  1.207E+01
  3.895E-03  4.242E-03  1.227E-05  9.264E+00
  4.242E-03  4.619E-03  3.235E-04  4.641E+00
  4.619E-03  5.030E-03  3.857E-05  1.273E+01
  5.030E-03  5.477E-03  1.426E-05  9.848E+00
  5.477E-03  5.964E-03  1.470E-05  1.246E+01
  5.964E-03  6.494E-03  1.580E-05  8.140E+00
  6.494E-03  7.071E-03  3.523E-05  6.726E+00
  7.071E-03  7.700E-03  1.524E-05  8.942E+00
  7.700E-03  8.384E-03  8.972E-06  9.676E+00
  8.384E-03  9.130E-03  1.493E-05  1.084E+01
  9.130E-03  9.941E-03  5.320E-06  2.436E+01
  9.941E-03  1.083E-02  1.882E-07  4.733E+01
  1.083E-02  1.179E-02  7.224E-08  9.900E+01
  1.179E-02  1.284E-02  1.030E-08  9.900E+01
  1.284E-02  1.398E-02  7.060E-08  7.724E+01
  1.398E-02  1.522E-02  1.241E-07  6.274E+01
  1.522E-02  1.657E-02  5.818E-08  5.071E+01
  1.657E-02  1.805E-02  0.000E+00  0.000E+00
  1.805E-02  1.965E-02  0.000E+00  0.000E+00
  1.965E-02  2.140E-02  0.000E+00  0.000E+00
  2.140E-02  2.330E-02  0.000E+00  0.000E+00
  2.330E-02  2.537E-02  0.000E+00  0.000E+00
  2.537E-02  2.763E-02  0.000E+00  0.000E+00
  2.763E-02  3.008E-02  0.000E+00  0.000E+00
  3.008E-02  3.276E-02  0.000E+00  0.000E+00
  3.276E-02  3.567E-02  1.042E-08  9.900E+01
  3.567E-02  3.884E-02  5.960E-09  9.900E+01
  3.884E-02  4.229E-02  3.035E-08  7.595E+01
  4.229E-02  4.605E-02  7.407E-09  6.265E+01
  4.605E-02  5.015E-02  4.235E-08  5.775E+01
  5.015E-02  5.461E-02  2.604E-08  5.257E+01
  5.461E-02  5.946E-02  4.006E-08  2.862E+01
  5.946E-02  6.475E-02  4.064E-08  2.852E+01
  6.475E-02  7.050E-02  8.627E-08  3.768E+01
  7.050E-02  7.677E-02  1.157E-07  4.141E+01
  7.677E-02  8.360E-02  3.851E-08  1.774E+01
  8.360E-02  9.103E-02  1.319E-08  5.136E+01
  9.103E-02  9.912E-02  1.539E-09  9.900E+01
  9.912E-02  1.079E-01  1.766E-08  6.318E+01
  1.079E-01  1.175E-01  1.025E-08  3.792E+01
  1.175E-01  1.280E-01  2.177E-08  1.946E+01
  1.280E-01  1.394E-01  1.367E-08  4.754E+01
  1.394E-01  1.517E-01  0.000E+00  0.000E+00
  1.517E-01  1.652E-01  0.000E+00  0.000E+00
  1.652E-01  1.799E-01  0.000E+00  0.000E+00
  1.799E-01  1.959E-01  0.000E+00  0.000E+00
  1.959E-01  2.133E-01  0.000E+00  0.000E+00
  2.133E-01  2.323E-01  0.000E+00  0.000E+00
  2.323E-01  2.530E-01  0.000E+00  0.000E+00
  2.530E-01  2.754E-01  0.000E+00  0.000E+00
  2.754E-01  2.999E-01  0.000E+00  0.000E+00
  2.999E-01  3.266E-01  0.000E+00  0.000E+00
  3.266E-01  3.556E-01  0.000E+00  0.000E+00
  3.556E-01  3.873E-01  0.000E+00  0.000E+00
  3.873E-01  4.217E-01  0.000E+00  0.000E+00
  4.217E-01  4.592E-01  0.000E+00  0.000E+00
  4.592E-01  5.000E-01  0.000E+00  0.000E+00


 # double differential distributions
 # number of solid angle intervals           1
 # Block n:            1     0.00000000      :   6.28318548    
  1.000E-04  1.089E-04  3.815E-04  1.826E+00  0.000E+00  6.283E+00
  1.089E-04  1.186E-04  3.969E-04  3.730E+00  0.000E+00  6.283E+00
  1.186E-04  1.291E-04  3.646E-04  1.207E+00  0.000E+00  6.283E+00
  1.291E-04  1.406E-04  3.424E-04  2.355E+00  0.000E+00  6.283E+00
  1.406E-04  1.531E-04  3.244E-04  4.160E+00  0.000E+00  6.283E+00
  1.531E-04  1.667E-04  3.078E-04  1.386E+00  0.000E+00  6.283E+00
  1.667E-04  1.815E-04  3.771E-04  4.261E+00  0.000E+00  6.283E+00
  1.815E-04  1.977E-04  3.547E-04  3.369E+00  0.000E+00  6.283E+00
  1.977E-04  2.152E-04  3.255E-04  5.069E+00  0.000E+00  6.283E+00
  2.152E-04  2.344E-04  2.738E-04  4.559E+00  0.000E+00  6.283E+00
  2.344E-04  2.552E-04  2.584E-04  1.038E+01  0.000E+00  6.283E+00
  2.552E-04  2.779E-04  2.119E-04  5.688E+00  0.000E+00  6.283E+00
  2.779E-04  3.026E-04  2.011E-04  2.795E+00  0.000E+00  6.283E+00
  3.026E-04  3.295E-04  1.905E-04  4.313E+00  0.000E+00  6.283E+00
  3.295E-04  3.588E-04  1.758E-04  4.600E+00  0.000E+00  6.283E+00
  3.588E-04  3.907E-04  1.802E-04  2.072E+00  0.000E+00  6.283E+00
  3.907E-04  4.254E-04  1.994E-04  2.875E+00  0.000E+00  6.283E+00
  4.254E-04  4.632E-04  2.106E-04  2.099E+00  0.000E+00  6.283E+00
  4.632E-04  5.044E-04  1.328E-03  1.575E+00  0.000E+00  6.283E+00
  5.044E-04  5.493E-04  3.908E-05  3.312E+00  0.000E+00  6.283E+00
  5.493E-04  5.981E-04  2.151E-05  5.535E+00  0.000E+00  6.283E+00
  5.981E-04  6.513E-04  1.583E-05  5.164E+00  0.000E+00  6.283E+00
  6.513E-04  7.092E-04  2.766E-05  8.417E+00  0.000E+00  6.283E+00
  7.092E-04  7.722E-04  7.320E-05  5.418E+00  0.000E+00  6.283E+00
  7.722E-04  8.409E-04  1.131E-05  8.152E+00  0.000E+00  6.283E+00
  8.409E-04  9.157E-04  1.062E-05  8.881E+00  0.000E+00  6.283E+00
  9.157E-04  9.971E-04  2.660E-05  4.356E+00  0.000E+00  6.283E+00
  9.971E-04  1.086E-03  2.423E-05  4.809E+00  0.000E+00  6.283E+00
  1.086E-03  1.182E-03  7.776E-06  5.544E+00  0.000E+00  6.283E+00
  1.182E-03  1.287E-03  7.147E-06  1.013E+01  0.000E+00  6.283E+00
  1.287E-03  1.402E-03  1.519E-05  3.265E+00  0.000E+00  6.283E+00
  1.402E-03  1.526E-03  1.571E-05  8.315E+00  0.000E+00  6.283E+00
  1.526E-03  1.662E-03  6.709E-06  6.672E+00  0.000E+00  6.283E+00
  1.662E-03  1.810E-03  8.412E-06  1.637E+01  0.000E+00  6.283E+00
  1.810E-03  1.971E-03  5.973E-06  1.031E+01  0.000E+00  6.283E+00
  1.971E-03  2.146E-03  3.286E-05  1.038E+01  0.000E+00  6.283E+00
  2.146E-03  2.337E-03  2.884E-05  1.287E+00  0.000E+00  6.283E+00
  2.337E-03  2.545E-03  3.853E-06  1.392E+01  0.000E+00  6.283E+00
  2.545E-03  2.771E-03  7.620E-06  9.197E+00  0.000E+00  6.283E+00
  2.771E-03  3.017E-03  1.400E-05  5.205E+00  0.000E+00  6.283E+00
  3.017E-03  3.285E-03  3.698E-06  9.439E+00  0.000E+00  6.283E+00
  3.285E-03  3.577E-03  1.631E-05  4.844E+00  0.000E+00  6.283E+00
  3.577E-03  3.895E-03  3.296E-06  1.207E+01  0.000E+00  6.283E+00
  3.895E-03  4.242E-03  1.954E-06  9.264E+00  0.000E+00  6.283E+00
  4.242E-03  4.619E-03  5.148E-05  4.641E+00  0.000E+00  6.283E+00
  4.619E-03  5.030E-03  6.138E-06  1.273E+01  0.000E+00  6.283E+00
  5.030E-03  5.477E-03  2.269E-06  9.848E+00  0.000E+00  6.283E+00
  5.477E-03  5.964E-03  2.340E-06  1.246E+01  0.000E+00  6.283E+00
  5.964E-03  6.494E-03  2.514E-06  8.140E+00  0.000E+00  6.283E+00
  6.494E-03  7.071E-03  5.607E-06  6.726E+00  0.000E+00  6.283E+00
  7.071E-03  7.700E-03  2.425E-06  8.942E+00  0.000E+00  6.283E+00
  7.700E-03  8.384E-03  1.428E-06  9.676E+00  0.000E+00  6.283E+00
  8.384E-03  9.130E-03  2.377E-06  1.084E+01  0.000E+00  6.283E+00
  9.130E-03  9.941E-03  8.467E-07  2.436E+01  0.000E+00  6.283E+00
  9.941E-03  1.083E-02  2.995E-08  4.733E+01  0.000E+00  6.283E+00
  1.083E-02  1.179E-02  1.150E-08  9.900E+01  0.000E+00  6.283E+00
  1.179E-02  1.284E-02  1.639E-09  9.900E+01  0.000E+00  6.283E+00
  1.284E-02  1.398E-02  1.124E-08  7.724E+01  0.000E+00  6.283E+00
  1.398E-02  1.522E-02  1.976E-08  6.274E+01  0.000E+00  6.283E+00
  1.522E-02  1.657E-02  9.259E-09  5.071E+01  0.000E+00  6.283E+00
  1.657E-02  1.805E-02  0.000E+00  0.000E+00  0.000E+00  6.283E+00
  1.805E-02  1.965E-02  0.000E+00  0.000E+00  0.000E+00  6.283E+00
  1.965E-02  2.140E-02  0.000E+00  0.000E+00  0.000E+00  6.283E+00
  2.140E-02  2.330E-02  0.000E+00  0.000E+00  0.000E+00  6.283E+00
  2.330E-02  2.537E-02  0.000E+00  0.000E+00  0.000E+00  6.283E+00
  2.537E-02  2.763E-02  0.000E+00  0.000E+00  0.000E+00  6.283E+00
  2.763E-02  3.008E-02  0.000E+00  0.000E+00  0.000E+00  6.283E+00
  3.008E-02  3.276E-02  0.000E+00  0.000E+00  0.000E+00  6.283E+00
  3.276E-02  3.567E-02  1.659E-09  9.900E+01  0.000E+00  6.283E+00
  3.567E-02  3.884E-02  9.485E-10  9.900E+01  0.000E+00  6.283E+00
  3.884E-02  4.229E-02  4.831E-09  7.595E+01  0.000E+00  6.283E+00
  4.229E-02  4.605E-02  1.179E-09  6.265E+01  0.000E+00  6.283E+00
  4.605E-02  5.015E-02  6.741E-09  5.775E+01  0.000E+00  6.283E+00
  5.015E-02  5.461E-02  4.145E-09  5.257E+01  0.000E+00  6.283E+00
  5.461E-02  5.946E-02  6.376E-09  2.862E+01  0.000E+00  6.283E+00
  5.946E-02  6.475E-02  6.467E-09  2.852E+01  0.000E+00  6.283E+00
  6.475E-02  7.050E-02  1.373E-08  3.768E+01  0.000E+00  6.283E+00
  7.050E-02  7.677E-02  1.841E-08  4.141E+01  0.000E+00  6.283E+00
  7.677E-02  8.360E-02  6.128E-09  1.774E+01  0.000E+00  6.283E+00
  8.360E-02  9.103E-02  2.100E-09  5.136E+01  0.000E+00  6.283E+00
  9.103E-02  9.912E-02  2.450E-10  9.900E+01  0.000E+00  6.283E+00
  9.912E-02  1.079E-01  2.811E-09  6.318E+01  0.000E+00  6.283E+00
  1.079E-01  1.175E-01  1.631E-09  3.792E+01  0.000E+00  6.283E+00
  1.175E-01  1.280E-01  3.464E-09  1.946E+01  0.000E+00  6.283E+00
  1.280E-01  1.394E-01  2.175E-09  4.754E+01  0.000E+00  6.283E+00
  1.394E-01  1.517E-01  0.000E+00  0.000E+00  0.000E+00  6.283E+00
  1.517E-01  1.652E-01  0.000E+00  0.000E+00  0.000E+00  6.283E+00
  1.652E-01  1.799E-01  0.000E+00  0.000E+00  0.000E+00  6.283E+00
  1.799E-01  1.959E-01  0.000E+00  0.000E+00  0.000E+00  6.283E+00
  1.959E-01  2.133E-01  0.000E+00  0.000E+00  0.000E+00  6.283E+00
  2.133E-01  2.323E-01  0.000E+00  0.000E+00  0.000E+00  6.283E+00
  2.323E-01  2.530E-01  0.000E+00  0.000E+00  0.000E+00  6.283E+00
  2.530E-01  2.754E-01  0.000E+00  0.000E+00  0.000E+00  6.283E+00
  2.754E-01  2.999E-01  0.000E+00  0.000E+00  0.000E+00  6.283E+00
  2.999E-01  3.266E-01  0.000E+00  0.000E+00  0.000E+00  6.283E+00
  3.266E-01  3.556E-01  0.000E+00  0.000E+00  0.000E+00  6.283E+00
  3.556E-01  3.873E-01  0.000E+00  0.000E+00  0.000E+00  6.283E+00
  3.873E-01  4.217E-01  0.000E+00  0.000E+00  0.000E+00  6.283E+00
  4.217E-01  4.592E-01  0.000E+00  0.000E+00  0.000E+00  6.283E+00
  4.592E-01  5.000E-01  0.000E+00  0.000E+00  0.000E+00  6.283E+00
  5.000E-01  5.000E-01  0.000E+00  0.000E+00  0.000E+00  6.283E+00

  1.000E-04  1.000E-04  0.000E+00  0.000E+00  6.283E+00  6.283E+00
  1.089E-04  1.089E-04  0.000E+00  0.000E+00  6.283E+00  6.283E+00
  1.186E-04  1.186E-04  0.000E+00  0.000E+00  6.283E+00  6.283E+00
  1.291E-04  1.291E-04  0.000E+00  0.000E+00  6.283E+00  6.283E+00
  1.406E-04  1.406E-04  0.000E+00  0.000E+00  6.283E+00  6.283E+00
  1.531E-04  1.531E-04  0.000E+00  0.000E+00  6.283E+00  6.283E+00
  1.667E-04  1.667E-04  0.000E+00  0.000E+00  6.283E+00  6.283E+00
  1.815E-04  1.815E-04  0.000E+00  0.000E+00  6.283E+00  6.283E+00
  1.977E-04  1.977E-04  0.000E+00  0.000E+00  6.283E+00  6.283E+00
  2.152E-04  2.152E-04  0.000E+00  0.000E+00  6.283E+00  6.283E+00
  2.344E-04  2.344E-04  0.000E+00  0.000E+00  6.283E+00  6.283E+00
  2.552E-04  2.552E-04  0.000E+00  0.000E+00  6.283E+00  6.283E+00
  2.779E-04  2.779E-04  0.000E+00  0.000E+00  6.283E+00  6.283E+00
  3.026E-04  3.026E-04  0.000E+00  0.000E+00  6.283E+00  6.283E+00
  3.295E-04  3.295E-04  0.000E+00  0.000E+00  6.283E+00  6.283E+00
  3.588E-04  3.588E-04  0.000E+00  0.000E+00  6.283E+00  6.283E+00
  3.907E-04  3.907E-04  0.000E+00  0.000E+00  6.283E+00  6.283E+00
  4.254E-04  4.254E-04  0.000E+00  0.000E+00  6.283E+00  6.283E+00
  4.632E-04  4.632E-04  0.000E+00  0.000E+00  6.283E+00  6.283E+00
  5.044E-04  5.044E-04  0.000E+00  0.000E+00  6.283E+00  6.283E+00
  5.493E-04  5.493E-04  0.000E+00  0.000E+00  6.283E+00  6.283E+00
  5.981E-04  5.981E-04  0.000E+00  0.000E+00  6.283E+00  6.283E+00
  6.513E-04  6.513E-04  0.000E+00  0.000E+00  6.283E+00  6.283E+00
  7.092E-04  7.092E-04  0.000E+00  0.000E+00  6.283E+00  6.283E+00
  7.722E-04  7.722E-04  0.000E+00  0.000E+00  6.283E+00  6.283E+00
  8.409E-04  8.409E-04  0.000E+00  0.000E+00  6.283E+00  6.283E+00
  9.157E-04  9.157E-04  0.000E+00  0.000E+00  6.283E+00  6.283E+00
  9.971E-04  9.971E-04  0.000E+00  0.000E+00  6.283E+00  6.283E+00
  1.086E-03  1.086E-03  0.000E+00  0.000E+00  6.283E+00  6.283E+00
  1.182E-03  1.182E-03  0.000E+00  0.000E+00  6.283E+00  6.283E+00
  1.287E-03  1.287E-03  0.000E+00  0.000E+00  6.283E+00  6.283E+00
  1.402E-03  1.402E-03  0.000E+00  0.000E+00  6.283E+00  6.283E+00
  1.526E-03  1.526E-03  0.000E+00  0.000E+00  6.283E+00  6.283E+00
  1.662E-03  1.662E-03  0.000E+00  0.000E+00  6.283E+00  6.283E+00
  1.810E-03  1.810E-03  0.000E+00  0.000E+00  6.283E+00  6.283E+00
  1.971E-03  1.971E-03  0.000E+00  0.000E+00  6.283E+00  6.283E+00
  2.146E-03  2.146E-03  0.000E+00  0.000E+00  6.283E+00  6.283E+00
  2.337E-03  2.337E-03  0.000E+00  0.000E+00  6.283E+00  6.283E+00
  2.545E-03  2.545E-03  0.000E+00  0.000E+00  6.283E+00  6.283E+00
  2.771E-03  2.771E-03  0.000E+00  0.000E+00  6.283E+00  6.283E+00
  3.017E-03  3.017E-03  0.000E+00  0.000E+00  6.283E+00  6.283E+00
  3.285E-03  3.285E-03  0.000E+00  0.000E+00  6.283E+00  6.283E+00
  3.577E-03  3.577E-03  0.000E+00  0.000E+00  6.283E+00  6.283E+00
  3.895E-03  3.895E-03  0.000E+00  0.000E+00  6.283E+00  6.283E+00
  4.242E-03  4.242E-03  0.000E+00  0.000E+00  6.283E+00  6.283E+00
  4.619E-03  4.619E-03  0.000E+00  0.000E+00  6.283E+00  6.283E+00
  5.030E-03  5.030E-03  0.000E+00  0.000E+00  6.283E+00  6.283E+00
  5.477E-03  5.477E-03  0.000E+00  0.000E+00  6.283E+00  6.283E+00
  5.964E-03  5.964E-03  0.000E+00  0.000E+00  6.283E+00  6.283E+00
  6.494E-03  6.494E-03  0.000E+00  0.000E+00  6.283E+00  6.283E+00
  7.071E-03  7.071E-03  0.000E+00  0.000E+00  6.283E+00  6.283E+00
  7.700E-03  7.700E-03  0.000E+00  0.000E+00  6.283E+00  6.283E+00
  8.384E-03  8.384E-03  0.000E+00  0.000E+00  6.283E+00  6.283E+00
  9.130E-03  9.130E-03  0.000E+00  0.000E+00  6.283E+00  6.283E+00
  9.941E-03  9.941E-03  0.000E+00  0.000E+00  6.283E+00  6.283E+00
  1.083E-02  1.083E-02  0.000E+00  0.000E+00  6.283E+00  6.283E+00
  1.179E-02  1.179E-02  0.000E+00  0.000E+00  6.283E+00  6.283E+00
  1.284E-02  1.284E-02  0.000E+00  0.000E+00  6.283E+00  6.283E+00
  1.398E-02  1.398E-02  0.000E+00  0.000E+00  6.283E+00  6.283E+00
  1.522E-02  1.522E-02  0.000E+00  0.000E+00  6.283E+00  6.283E+00
  1.657E-02  1.657E-02  0.000E+00  0.000E+00  6.283E+00  6.283E+00
  1.805E-02  1.805E-02  0.000E+00  0.000E+00  6.283E+00  6.283E+00
  1.965E-02  1.965E-02  0.000E+00  0.000E+00  6.283E+00  6.283E+00
  2.140E-02  2.140E-02  0.000E+00  0.000E+00  6.283E+00  6.283E+00
  2.330E-02  2.330E-02  0.000E+00  0.000E+00  6.283E+00  6.283E+00
  2.537E-02  2.537E-02  0.000E+00  0.000E+00  6.283E+00  6.283E+00
  2.763E-02  2.763E-02  0.000E+00  0.000E+00  6.283E+00  6.283E+00
  3.008E-02  3.008E-02  0.000E+00  0.000E+00  6.283E+00  6.283E+00
  3.276E-02  3.276E-02  0.000E+00  0.000E+00  6.283E+00  6.283E+00
  3.567E-02  3.567E-02  0.000E+00  0.000E+00  6.283E+00  6.283E+00
  3.884E-02  3.884E-02  0.000E+00  0.000E+00  6.283E+00  6.283E+00
  4.229E-02  4.229E-02  0.000E+00  0.000E+00  6.283E+00  6.283E+00
  4.605E-02  4.605E-02  0.000E+00  0.000E+00  6.283E+00  6.283E+00
  5.015E-02  5.015E-02  0.000E+00  0.000E+00  6.283E+00  6.283E+00
  5.461E-02  5.461E-02  0.000E+00  0.000E+00  6.283E+00  6.283E+00
  5.946E-02  5.946E-02  0.000E+00  0.000E+00  6.283E+00  6.283E+00
  6.475E-02  6.475E-02  0.000E+00  0.000E+00  6.283E+00  6.283E+00
  7.050E-02  7.050E-02  0.000E+00  0.000E+00  6.283E+00  6.283E+00
  7.677E-02  7.677E-02  0.000E+00  0.000E+00  6.283E+00  6.283E+00
  8.360E-02  8.360E-02  0.000E+00  0.000E+00  6.283E+00  6.283E+00
  9.103E-02  9.103E-02  0.000E+00  0.000E+00  6.283E+00  6.283E+00
  9.912E-02  9.912E-02  0.000E+00  0.000E+00  6.283E+00  6.283E+00
  1.079E-01  1.079E-01  0.000E+00  0.000E+00  6.283E+00  6.283E+00
  1.175E-01  1.175E-01  0.000E+00  0.000E+00  6.283E+00  6.283E+00
  1.280E-01  1.280E-01  0.000E+00  0.000E+00  6.283E+00  6.283E+00
  1.394E-01  1.394E-01  0.000E+00  0.000E+00  6.283E+00  6.283E+00
  1.517E-01  1.517E-01  0.000E+00  0.000E+00  6.283E+00  6.283E+00
  1.652E-01  1.652E-01  0.000E+00  0.000E+00  6.283E+00  6.283E+00
  1.799E-01  1.799E-01  0.000E+00  0.000E+00  6.283E+00  6.283E+00
  1.959E-01  1.959E-01  0.000E+00  0.000E+00  6.283E+00  6.283E+00
  2.133E-01  2.133E-01  0.000E+00  0.000E+00  6.283E+00  6.283E+00
  2.323E-01  2.323E-01  0.000E+00  0.000E+00  6.283E+00  6.283E+00
  2.530E-01  2.530E-01  0.000E+00  0.000E+00  6.283E+00  6.283E+00
  2.754E-01  2.754E-01  0.000E+00  0.000E+00  6.283E+00  6.283E+00
  2.999E-01  2.999E-01  0.000E+00  0.000E+00  6.283E+00  6.283E+00
  3.266E-01  3.266E-01  0.000E+00  0.000E+00  6.283E+00  6.283E+00
  3.556E-01  3.556E-01  0.000E+00  0.000E+00  6.283E+00  6.283E+00
  3.873E-01  3.873E-01  0.000E+00  0.000E+00  6.283E+00  6.283E+00
  4.217E-01  4.217E-01  0.000E+00  0.000E+00  6.283E+00  6.283E+00
  4.592E-01  4.592E-01  0.000E+00  0.000E+00  6.283E+00  6.283E+00
  5.000E-01  5.000E-01  0.000E+00  0.000E+00  6.283E+00  6.283E+00
