 # Detector n:            1   BdxPhot   (integrated over solid angle)
 # N. of energy intervals         100
  1.000E-04  1.089E-04  2.926E-02  5.833E-01
  1.089E-04  1.186E-04  2.853E-02  6.995E-01
  1.186E-04  1.291E-04  2.597E-02  7.748E-01
  1.291E-04  1.406E-04  2.376E-02  8.705E-01
  1.406E-04  1.531E-04  2.218E-02  4.226E-01
  1.531E-04  1.667E-04  2.123E-02  4.080E-01
  1.667E-04  1.815E-04  2.245E-02  2.114E-01
  1.815E-04  1.977E-04  2.139E-02  1.876E-01
  1.977E-04  2.152E-04  1.934E-02  5.651E-01
  2.152E-04  2.344E-04  1.736E-02  5.563E-01
  2.344E-04  2.552E-04  1.582E-02  5.302E-01
  2.552E-04  2.779E-04  1.447E-02  9.429E-02
  2.779E-04  3.026E-04  1.377E-02  2.218E-01
  3.026E-04  3.295E-04  1.327E-02  6.063E-01
  3.295E-04  3.588E-04  1.296E-02  2.509E-01
  3.588E-04  3.907E-04  1.304E-02  3.418E-01
  3.907E-04  4.254E-04  1.300E-02  1.541E-01
  4.254E-04  4.632E-04  1.324E-02  3.177E-01
  4.632E-04  5.044E-04  6.248E-02  6.559E-02
  5.044E-04  5.493E-04  9.644E-05  5.100E+00
  5.493E-04  5.981E-04  7.205E-05  5.845E+00
  5.981E-04  6.513E-04  6.108E-05  2.946E+00
  6.513E-04  7.092E-04  5.907E-05  2.751E+00
  7.092E-04  7.722E-04  5.518E-05  4.524E+00
  7.722E-04  8.409E-04  5.177E-05  2.996E+00
  8.409E-04  9.157E-04  5.460E-05  5.491E+00
  9.157E-04  9.971E-04  5.011E-05  1.333E+00
  9.971E-04  1.086E-03  4.798E-05  3.913E+00
  1.086E-03  1.182E-03  4.271E-05  4.250E+00
  1.182E-03  1.287E-03  4.467E-05  2.695E+00
  1.287E-03  1.402E-03  4.315E-05  2.570E+00
  1.402E-03  1.526E-03  4.474E-05  1.882E+00
  1.526E-03  1.662E-03  4.276E-05  2.086E+00
  1.662E-03  1.810E-03  4.158E-05  4.340E+00
  1.810E-03  1.971E-03  4.307E-05  2.428E+00
  1.971E-03  2.146E-03  4.517E-05  9.423E-01
  2.146E-03  2.337E-03  6.692E-04  2.529E-01
  2.337E-03  2.545E-03  2.731E-07  1.687E+01
  2.545E-03  2.771E-03  1.583E-07  3.786E+01
  2.771E-03  3.017E-03  4.115E-07  1.247E+01
  3.017E-03  3.285E-03  1.713E-07  3.376E+01
  3.285E-03  3.577E-03  4.529E-07  1.884E+01
  3.577E-03  3.895E-03  5.887E-07  1.283E+01
  3.895E-03  4.242E-03  4.702E-07  1.170E+01
  4.242E-03  4.619E-03  1.049E-06  8.364E+00
  4.619E-03  5.030E-03  1.560E-06  6.867E+00
  5.030E-03  5.477E-03  2.320E-08  6.411E+01
  5.477E-03  5.964E-03  6.871E-08  3.232E+01
  5.964E-03  6.494E-03  3.343E-07  1.363E+01
  6.494E-03  7.071E-03  8.600E-07  9.533E+00
  7.071E-03  7.700E-03  1.517E-07  1.264E+01
  7.700E-03  8.384E-03  5.905E-08  1.943E+01
  8.384E-03  9.130E-03  8.931E-08  1.732E+01
  9.130E-03  9.941E-03  2.948E-07  8.867E+00
  9.941E-03  1.083E-02  2.495E-09  9.900E+01
  1.083E-02  1.179E-02  2.160E-07  1.037E+01
  1.179E-02  1.284E-02  0.000E+00  0.000E+00
  1.284E-02  1.398E-02  0.000E+00  0.000E+00
  1.398E-02  1.522E-02  0.000E+00  0.000E+00
  1.522E-02  1.657E-02  0.000E+00  0.000E+00
  1.657E-02  1.805E-02  0.000E+00  0.000E+00
  1.805E-02  1.965E-02  0.000E+00  0.000E+00
  1.965E-02  2.140E-02  0.000E+00  0.000E+00
  2.140E-02  2.330E-02  0.000E+00  0.000E+00
  2.330E-02  2.537E-02  0.000E+00  0.000E+00
  2.537E-02  2.763E-02  0.000E+00  0.000E+00
  2.763E-02  3.008E-02  0.000E+00  0.000E+00
  3.008E-02  3.276E-02  0.000E+00  0.000E+00
  3.276E-02  3.567E-02  0.000E+00  0.000E+00
  3.567E-02  3.884E-02  0.000E+00  0.000E+00
  3.884E-02  4.229E-02  0.000E+00  0.000E+00
  4.229E-02  4.605E-02  0.000E+00  0.000E+00
  4.605E-02  5.015E-02  0.000E+00  0.000E+00
  5.015E-02  5.461E-02  0.000E+00  0.000E+00
  5.461E-02  5.946E-02  0.000E+00  0.000E+00
  5.946E-02  6.475E-02  0.000E+00  0.000E+00
  6.475E-02  7.050E-02  0.000E+00  0.000E+00
  7.050E-02  7.677E-02  0.000E+00  0.000E+00
  7.677E-02  8.360E-02  0.000E+00  0.000E+00
  8.360E-02  9.103E-02  0.000E+00  0.000E+00
  9.103E-02  9.912E-02  0.000E+00  0.000E+00
  9.912E-02  1.079E-01  0.000E+00  0.000E+00
  1.079E-01  1.175E-01  0.000E+00  0.000E+00
  1.175E-01  1.280E-01  0.000E+00  0.000E+00
  1.280E-01  1.394E-01  0.000E+00  0.000E+00
  1.394E-01  1.517E-01  0.000E+00  0.000E+00
  1.517E-01  1.652E-01  0.000E+00  0.000E+00
  1.652E-01  1.799E-01  0.000E+00  0.000E+00
  1.799E-01  1.959E-01  0.000E+00  0.000E+00
  1.959E-01  2.133E-01  0.000E+00  0.000E+00
  2.133E-01  2.323E-01  0.000E+00  0.000E+00
  2.323E-01  2.530E-01  0.000E+00  0.000E+00
  2.530E-01  2.754E-01  0.000E+00  0.000E+00
  2.754E-01  2.999E-01  0.000E+00  0.000E+00
  2.999E-01  3.266E-01  0.000E+00  0.000E+00
  3.266E-01  3.556E-01  0.000E+00  0.000E+00
  3.556E-01  3.873E-01  0.000E+00  0.000E+00
  3.873E-01  4.217E-01  0.000E+00  0.000E+00
  4.217E-01  4.592E-01  0.000E+00  0.000E+00
  4.592E-01  5.000E-01  0.000E+00  0.000E+00


 # double differential distributions
 # number of solid angle intervals           1
 # Block n:            1     0.00000000      :   6.28318548    
  1.000E-04  1.089E-04  4.656E-03  5.833E-01  0.000E+00  6.283E+00
  1.089E-04  1.186E-04  4.541E-03  6.995E-01  0.000E+00  6.283E+00
  1.186E-04  1.291E-04  4.134E-03  7.748E-01  0.000E+00  6.283E+00
  1.291E-04  1.406E-04  3.782E-03  8.705E-01  0.000E+00  6.283E+00
  1.406E-04  1.531E-04  3.531E-03  4.226E-01  0.000E+00  6.283E+00
  1.531E-04  1.667E-04  3.379E-03  4.080E-01  0.000E+00  6.283E+00
  1.667E-04  1.815E-04  3.574E-03  2.114E-01  0.000E+00  6.283E+00
  1.815E-04  1.977E-04  3.405E-03  1.876E-01  0.000E+00  6.283E+00
  1.977E-04  2.152E-04  3.077E-03  5.651E-01  0.000E+00  6.283E+00
  2.152E-04  2.344E-04  2.763E-03  5.563E-01  0.000E+00  6.283E+00
  2.344E-04  2.552E-04  2.519E-03  5.302E-01  0.000E+00  6.283E+00
  2.552E-04  2.779E-04  2.304E-03  9.429E-02  0.000E+00  6.283E+00
  2.779E-04  3.026E-04  2.191E-03  2.218E-01  0.000E+00  6.283E+00
  3.026E-04  3.295E-04  2.112E-03  6.063E-01  0.000E+00  6.283E+00
  3.295E-04  3.588E-04  2.063E-03  2.509E-01  0.000E+00  6.283E+00
  3.588E-04  3.907E-04  2.076E-03  3.418E-01  0.000E+00  6.283E+00
  3.907E-04  4.254E-04  2.070E-03  1.541E-01  0.000E+00  6.283E+00
  4.254E-04  4.632E-04  2.107E-03  3.177E-01  0.000E+00  6.283E+00
  4.632E-04  5.044E-04  9.944E-03  6.559E-02  0.000E+00  6.283E+00
  5.044E-04  5.493E-04  1.535E-05  5.100E+00  0.000E+00  6.283E+00
  5.493E-04  5.981E-04  1.147E-05  5.845E+00  0.000E+00  6.283E+00
  5.981E-04  6.513E-04  9.721E-06  2.946E+00  0.000E+00  6.283E+00
  6.513E-04  7.092E-04  9.401E-06  2.751E+00  0.000E+00  6.283E+00
  7.092E-04  7.722E-04  8.783E-06  4.524E+00  0.000E+00  6.283E+00
  7.722E-04  8.409E-04  8.239E-06  2.996E+00  0.000E+00  6.283E+00
  8.409E-04  9.157E-04  8.689E-06  5.491E+00  0.000E+00  6.283E+00
  9.157E-04  9.971E-04  7.976E-06  1.333E+00  0.000E+00  6.283E+00
  9.971E-04  1.086E-03  7.636E-06  3.913E+00  0.000E+00  6.283E+00
  1.086E-03  1.182E-03  6.797E-06  4.250E+00  0.000E+00  6.283E+00
  1.182E-03  1.287E-03  7.109E-06  2.695E+00  0.000E+00  6.283E+00
  1.287E-03  1.402E-03  6.867E-06  2.570E+00  0.000E+00  6.283E+00
  1.402E-03  1.526E-03  7.121E-06  1.882E+00  0.000E+00  6.283E+00
  1.526E-03  1.662E-03  6.806E-06  2.086E+00  0.000E+00  6.283E+00
  1.662E-03  1.810E-03  6.617E-06  4.340E+00  0.000E+00  6.283E+00
  1.810E-03  1.971E-03  6.855E-06  2.428E+00  0.000E+00  6.283E+00
  1.971E-03  2.146E-03  7.188E-06  9.423E-01  0.000E+00  6.283E+00
  2.146E-03  2.337E-03  1.065E-04  2.529E-01  0.000E+00  6.283E+00
  2.337E-03  2.545E-03  4.346E-08  1.687E+01  0.000E+00  6.283E+00
  2.545E-03  2.771E-03  2.519E-08  3.786E+01  0.000E+00  6.283E+00
  2.771E-03  3.017E-03  6.550E-08  1.247E+01  0.000E+00  6.283E+00
  3.017E-03  3.285E-03  2.726E-08  3.376E+01  0.000E+00  6.283E+00
  3.285E-03  3.577E-03  7.209E-08  1.884E+01  0.000E+00  6.283E+00
  3.577E-03  3.895E-03  9.369E-08  1.283E+01  0.000E+00  6.283E+00
  3.895E-03  4.242E-03  7.483E-08  1.170E+01  0.000E+00  6.283E+00
  4.242E-03  4.619E-03  1.669E-07  8.364E+00  0.000E+00  6.283E+00
  4.619E-03  5.030E-03  2.483E-07  6.867E+00  0.000E+00  6.283E+00
  5.030E-03  5.477E-03  3.693E-09  6.411E+01  0.000E+00  6.283E+00
  5.477E-03  5.964E-03  1.094E-08  3.232E+01  0.000E+00  6.283E+00
  5.964E-03  6.494E-03  5.321E-08  1.363E+01  0.000E+00  6.283E+00
  6.494E-03  7.071E-03  1.369E-07  9.533E+00  0.000E+00  6.283E+00
  7.071E-03  7.700E-03  2.414E-08  1.264E+01  0.000E+00  6.283E+00
  7.700E-03  8.384E-03  9.399E-09  1.943E+01  0.000E+00  6.283E+00
  8.384E-03  9.130E-03  1.421E-08  1.732E+01  0.000E+00  6.283E+00
  9.130E-03  9.941E-03  4.692E-08  8.867E+00  0.000E+00  6.283E+00
  9.941E-03  1.083E-02  3.970E-10  9.900E+01  0.000E+00  6.283E+00
  1.083E-02  1.179E-02  3.438E-08  1.037E+01  0.000E+00  6.283E+00
  1.179E-02  1.284E-02  0.000E+00  0.000E+00  0.000E+00  6.283E+00
  1.284E-02  1.398E-02  0.000E+00  0.000E+00  0.000E+00  6.283E+00
  1.398E-02  1.522E-02  0.000E+00  0.000E+00  0.000E+00  6.283E+00
  1.522E-02  1.657E-02  0.000E+00  0.000E+00  0.000E+00  6.283E+00
  1.657E-02  1.805E-02  0.000E+00  0.000E+00  0.000E+00  6.283E+00
  1.805E-02  1.965E-02  0.000E+00  0.000E+00  0.000E+00  6.283E+00
  1.965E-02  2.140E-02  0.000E+00  0.000E+00  0.000E+00  6.283E+00
  2.140E-02  2.330E-02  0.000E+00  0.000E+00  0.000E+00  6.283E+00
  2.330E-02  2.537E-02  0.000E+00  0.000E+00  0.000E+00  6.283E+00
  2.537E-02  2.763E-02  0.000E+00  0.000E+00  0.000E+00  6.283E+00
  2.763E-02  3.008E-02  0.000E+00  0.000E+00  0.000E+00  6.283E+00
  3.008E-02  3.276E-02  0.000E+00  0.000E+00  0.000E+00  6.283E+00
  3.276E-02  3.567E-02  0.000E+00  0.000E+00  0.000E+00  6.283E+00
  3.567E-02  3.884E-02  0.000E+00  0.000E+00  0.000E+00  6.283E+00
  3.884E-02  4.229E-02  0.000E+00  0.000E+00  0.000E+00  6.283E+00
  4.229E-02  4.605E-02  0.000E+00  0.000E+00  0.000E+00  6.283E+00
  4.605E-02  5.015E-02  0.000E+00  0.000E+00  0.000E+00  6.283E+00
  5.015E-02  5.461E-02  0.000E+00  0.000E+00  0.000E+00  6.283E+00
  5.461E-02  5.946E-02  0.000E+00  0.000E+00  0.000E+00  6.283E+00
  5.946E-02  6.475E-02  0.000E+00  0.000E+00  0.000E+00  6.283E+00
  6.475E-02  7.050E-02  0.000E+00  0.000E+00  0.000E+00  6.283E+00
  7.050E-02  7.677E-02  0.000E+00  0.000E+00  0.000E+00  6.283E+00
  7.677E-02  8.360E-02  0.000E+00  0.000E+00  0.000E+00  6.283E+00
  8.360E-02  9.103E-02  0.000E+00  0.000E+00  0.000E+00  6.283E+00
  9.103E-02  9.912E-02  0.000E+00  0.000E+00  0.000E+00  6.283E+00
  9.912E-02  1.079E-01  0.000E+00  0.000E+00  0.000E+00  6.283E+00
  1.079E-01  1.175E-01  0.000E+00  0.000E+00  0.000E+00  6.283E+00
  1.175E-01  1.280E-01  0.000E+00  0.000E+00  0.000E+00  6.283E+00
  1.280E-01  1.394E-01  0.000E+00  0.000E+00  0.000E+00  6.283E+00
  1.394E-01  1.517E-01  0.000E+00  0.000E+00  0.000E+00  6.283E+00
  1.517E-01  1.652E-01  0.000E+00  0.000E+00  0.000E+00  6.283E+00
  1.652E-01  1.799E-01  0.000E+00  0.000E+00  0.000E+00  6.283E+00
  1.799E-01  1.959E-01  0.000E+00  0.000E+00  0.000E+00  6.283E+00
  1.959E-01  2.133E-01  0.000E+00  0.000E+00  0.000E+00  6.283E+00
  2.133E-01  2.323E-01  0.000E+00  0.000E+00  0.000E+00  6.283E+00
  2.323E-01  2.530E-01  0.000E+00  0.000E+00  0.000E+00  6.283E+00
  2.530E-01  2.754E-01  0.000E+00  0.000E+00  0.000E+00  6.283E+00
  2.754E-01  2.999E-01  0.000E+00  0.000E+00  0.000E+00  6.283E+00
  2.999E-01  3.266E-01  0.000E+00  0.000E+00  0.000E+00  6.283E+00
  3.266E-01  3.556E-01  0.000E+00  0.000E+00  0.000E+00  6.283E+00
  3.556E-01  3.873E-01  0.000E+00  0.000E+00  0.000E+00  6.283E+00
  3.873E-01  4.217E-01  0.000E+00  0.000E+00  0.000E+00  6.283E+00
  4.217E-01  4.592E-01  0.000E+00  0.000E+00  0.000E+00  6.283E+00
  4.592E-01  5.000E-01  0.000E+00  0.000E+00  0.000E+00  6.283E+00
  5.000E-01  5.000E-01  0.000E+00  0.000E+00  0.000E+00  6.283E+00

  1.000E-04  1.000E-04  0.000E+00  0.000E+00  6.283E+00  6.283E+00
  1.089E-04  1.089E-04  0.000E+00  0.000E+00  6.283E+00  6.283E+00
  1.186E-04  1.186E-04  0.000E+00  0.000E+00  6.283E+00  6.283E+00
  1.291E-04  1.291E-04  0.000E+00  0.000E+00  6.283E+00  6.283E+00
  1.406E-04  1.406E-04  0.000E+00  0.000E+00  6.283E+00  6.283E+00
  1.531E-04  1.531E-04  0.000E+00  0.000E+00  6.283E+00  6.283E+00
  1.667E-04  1.667E-04  0.000E+00  0.000E+00  6.283E+00  6.283E+00
  1.815E-04  1.815E-04  0.000E+00  0.000E+00  6.283E+00  6.283E+00
  1.977E-04  1.977E-04  0.000E+00  0.000E+00  6.283E+00  6.283E+00
  2.152E-04  2.152E-04  0.000E+00  0.000E+00  6.283E+00  6.283E+00
  2.344E-04  2.344E-04  0.000E+00  0.000E+00  6.283E+00  6.283E+00
  2.552E-04  2.552E-04  0.000E+00  0.000E+00  6.283E+00  6.283E+00
  2.779E-04  2.779E-04  0.000E+00  0.000E+00  6.283E+00  6.283E+00
  3.026E-04  3.026E-04  0.000E+00  0.000E+00  6.283E+00  6.283E+00
  3.295E-04  3.295E-04  0.000E+00  0.000E+00  6.283E+00  6.283E+00
  3.588E-04  3.588E-04  0.000E+00  0.000E+00  6.283E+00  6.283E+00
  3.907E-04  3.907E-04  0.000E+00  0.000E+00  6.283E+00  6.283E+00
  4.254E-04  4.254E-04  0.000E+00  0.000E+00  6.283E+00  6.283E+00
  4.632E-04  4.632E-04  0.000E+00  0.000E+00  6.283E+00  6.283E+00
  5.044E-04  5.044E-04  0.000E+00  0.000E+00  6.283E+00  6.283E+00
  5.493E-04  5.493E-04  0.000E+00  0.000E+00  6.283E+00  6.283E+00
  5.981E-04  5.981E-04  0.000E+00  0.000E+00  6.283E+00  6.283E+00
  6.513E-04  6.513E-04  0.000E+00  0.000E+00  6.283E+00  6.283E+00
  7.092E-04  7.092E-04  0.000E+00  0.000E+00  6.283E+00  6.283E+00
  7.722E-04  7.722E-04  0.000E+00  0.000E+00  6.283E+00  6.283E+00
  8.409E-04  8.409E-04  0.000E+00  0.000E+00  6.283E+00  6.283E+00
  9.157E-04  9.157E-04  0.000E+00  0.000E+00  6.283E+00  6.283E+00
  9.971E-04  9.971E-04  0.000E+00  0.000E+00  6.283E+00  6.283E+00
  1.086E-03  1.086E-03  0.000E+00  0.000E+00  6.283E+00  6.283E+00
  1.182E-03  1.182E-03  0.000E+00  0.000E+00  6.283E+00  6.283E+00
  1.287E-03  1.287E-03  0.000E+00  0.000E+00  6.283E+00  6.283E+00
  1.402E-03  1.402E-03  0.000E+00  0.000E+00  6.283E+00  6.283E+00
  1.526E-03  1.526E-03  0.000E+00  0.000E+00  6.283E+00  6.283E+00
  1.662E-03  1.662E-03  0.000E+00  0.000E+00  6.283E+00  6.283E+00
  1.810E-03  1.810E-03  0.000E+00  0.000E+00  6.283E+00  6.283E+00
  1.971E-03  1.971E-03  0.000E+00  0.000E+00  6.283E+00  6.283E+00
  2.146E-03  2.146E-03  0.000E+00  0.000E+00  6.283E+00  6.283E+00
  2.337E-03  2.337E-03  0.000E+00  0.000E+00  6.283E+00  6.283E+00
  2.545E-03  2.545E-03  0.000E+00  0.000E+00  6.283E+00  6.283E+00
  2.771E-03  2.771E-03  0.000E+00  0.000E+00  6.283E+00  6.283E+00
  3.017E-03  3.017E-03  0.000E+00  0.000E+00  6.283E+00  6.283E+00
  3.285E-03  3.285E-03  0.000E+00  0.000E+00  6.283E+00  6.283E+00
  3.577E-03  3.577E-03  0.000E+00  0.000E+00  6.283E+00  6.283E+00
  3.895E-03  3.895E-03  0.000E+00  0.000E+00  6.283E+00  6.283E+00
  4.242E-03  4.242E-03  0.000E+00  0.000E+00  6.283E+00  6.283E+00
  4.619E-03  4.619E-03  0.000E+00  0.000E+00  6.283E+00  6.283E+00
  5.030E-03  5.030E-03  0.000E+00  0.000E+00  6.283E+00  6.283E+00
  5.477E-03  5.477E-03  0.000E+00  0.000E+00  6.283E+00  6.283E+00
  5.964E-03  5.964E-03  0.000E+00  0.000E+00  6.283E+00  6.283E+00
  6.494E-03  6.494E-03  0.000E+00  0.000E+00  6.283E+00  6.283E+00
  7.071E-03  7.071E-03  0.000E+00  0.000E+00  6.283E+00  6.283E+00
  7.700E-03  7.700E-03  0.000E+00  0.000E+00  6.283E+00  6.283E+00
  8.384E-03  8.384E-03  0.000E+00  0.000E+00  6.283E+00  6.283E+00
  9.130E-03  9.130E-03  0.000E+00  0.000E+00  6.283E+00  6.283E+00
  9.941E-03  9.941E-03  0.000E+00  0.000E+00  6.283E+00  6.283E+00
  1.083E-02  1.083E-02  0.000E+00  0.000E+00  6.283E+00  6.283E+00
  1.179E-02  1.179E-02  0.000E+00  0.000E+00  6.283E+00  6.283E+00
  1.284E-02  1.284E-02  0.000E+00  0.000E+00  6.283E+00  6.283E+00
  1.398E-02  1.398E-02  0.000E+00  0.000E+00  6.283E+00  6.283E+00
  1.522E-02  1.522E-02  0.000E+00  0.000E+00  6.283E+00  6.283E+00
  1.657E-02  1.657E-02  0.000E+00  0.000E+00  6.283E+00  6.283E+00
  1.805E-02  1.805E-02  0.000E+00  0.000E+00  6.283E+00  6.283E+00
  1.965E-02  1.965E-02  0.000E+00  0.000E+00  6.283E+00  6.283E+00
  2.140E-02  2.140E-02  0.000E+00  0.000E+00  6.283E+00  6.283E+00
  2.330E-02  2.330E-02  0.000E+00  0.000E+00  6.283E+00  6.283E+00
  2.537E-02  2.537E-02  0.000E+00  0.000E+00  6.283E+00  6.283E+00
  2.763E-02  2.763E-02  0.000E+00  0.000E+00  6.283E+00  6.283E+00
  3.008E-02  3.008E-02  0.000E+00  0.000E+00  6.283E+00  6.283E+00
  3.276E-02  3.276E-02  0.000E+00  0.000E+00  6.283E+00  6.283E+00
  3.567E-02  3.567E-02  0.000E+00  0.000E+00  6.283E+00  6.283E+00
  3.884E-02  3.884E-02  0.000E+00  0.000E+00  6.283E+00  6.283E+00
  4.229E-02  4.229E-02  0.000E+00  0.000E+00  6.283E+00  6.283E+00
  4.605E-02  4.605E-02  0.000E+00  0.000E+00  6.283E+00  6.283E+00
  5.015E-02  5.015E-02  0.000E+00  0.000E+00  6.283E+00  6.283E+00
  5.461E-02  5.461E-02  0.000E+00  0.000E+00  6.283E+00  6.283E+00
  5.946E-02  5.946E-02  0.000E+00  0.000E+00  6.283E+00  6.283E+00
  6.475E-02  6.475E-02  0.000E+00  0.000E+00  6.283E+00  6.283E+00
  7.050E-02  7.050E-02  0.000E+00  0.000E+00  6.283E+00  6.283E+00
  7.677E-02  7.677E-02  0.000E+00  0.000E+00  6.283E+00  6.283E+00
  8.360E-02  8.360E-02  0.000E+00  0.000E+00  6.283E+00  6.283E+00
  9.103E-02  9.103E-02  0.000E+00  0.000E+00  6.283E+00  6.283E+00
  9.912E-02  9.912E-02  0.000E+00  0.000E+00  6.283E+00  6.283E+00
  1.079E-01  1.079E-01  0.000E+00  0.000E+00  6.283E+00  6.283E+00
  1.175E-01  1.175E-01  0.000E+00  0.000E+00  6.283E+00  6.283E+00
  1.280E-01  1.280E-01  0.000E+00  0.000E+00  6.283E+00  6.283E+00
  1.394E-01  1.394E-01  0.000E+00  0.000E+00  6.283E+00  6.283E+00
  1.517E-01  1.517E-01  0.000E+00  0.000E+00  6.283E+00  6.283E+00
  1.652E-01  1.652E-01  0.000E+00  0.000E+00  6.283E+00  6.283E+00
  1.799E-01  1.799E-01  0.000E+00  0.000E+00  6.283E+00  6.283E+00
  1.959E-01  1.959E-01  0.000E+00  0.000E+00  6.283E+00  6.283E+00
  2.133E-01  2.133E-01  0.000E+00  0.000E+00  6.283E+00  6.283E+00
  2.323E-01  2.323E-01  0.000E+00  0.000E+00  6.283E+00  6.283E+00
  2.530E-01  2.530E-01  0.000E+00  0.000E+00  6.283E+00  6.283E+00
  2.754E-01  2.754E-01  0.000E+00  0.000E+00  6.283E+00  6.283E+00
  2.999E-01  2.999E-01  0.000E+00  0.000E+00  6.283E+00  6.283E+00
  3.266E-01  3.266E-01  0.000E+00  0.000E+00  6.283E+00  6.283E+00
  3.556E-01  3.556E-01  0.000E+00  0.000E+00  6.283E+00  6.283E+00
  3.873E-01  3.873E-01  0.000E+00  0.000E+00  6.283E+00  6.283E+00
  4.217E-01  4.217E-01  0.000E+00  0.000E+00  6.283E+00  6.283E+00
  4.592E-01  4.592E-01  0.000E+00  0.000E+00  6.283E+00  6.283E+00
  5.000E-01  5.000E-01  0.000E+00  0.000E+00  6.283E+00  6.283E+00
