 # Detector n:            1   BdxProt   (integrated over solid angle)
 # N. of energy intervals         100
  1.000E-04  1.089E-04  0.000E+00  0.000E+00
  1.089E-04  1.186E-04  1.084E-06  9.900E+01
  1.186E-04  1.291E-04  0.000E+00  0.000E+00
  1.291E-04  1.406E-04  0.000E+00  0.000E+00
  1.406E-04  1.531E-04  8.664E-07  9.900E+01
  1.531E-04  1.667E-04  1.095E-06  9.900E+01
  1.667E-04  1.815E-04  0.000E+00  0.000E+00
  1.815E-04  1.977E-04  0.000E+00  0.000E+00
  1.977E-04  2.152E-04  1.333E-06  6.148E+01
  2.152E-04  2.344E-04  1.155E-06  9.900E+01
  2.344E-04  2.552E-04  6.809E-07  9.900E+01
  2.552E-04  2.779E-04  0.000E+00  0.000E+00
  2.779E-04  3.026E-04  1.037E-06  9.900E+01
  3.026E-04  3.295E-04  1.125E-06  9.900E+01
  3.295E-04  3.588E-04  0.000E+00  0.000E+00
  3.588E-04  3.907E-04  5.199E-07  9.900E+01
  3.907E-04  4.254E-04  2.153E-06  6.359E+01
  4.254E-04  4.632E-04  0.000E+00  0.000E+00
  4.632E-04  5.044E-04  0.000E+00  0.000E+00
  5.044E-04  5.493E-04  0.000E+00  0.000E+00
  5.493E-04  5.981E-04  4.705E-07  6.125E+01
  5.981E-04  6.513E-04  0.000E+00  0.000E+00
  6.513E-04  7.092E-04  2.068E-07  9.900E+01
  7.092E-04  7.722E-04  2.048E-07  9.900E+01
  7.722E-04  8.409E-04  3.058E-07  6.133E+01
  8.409E-04  9.157E-04  4.086E-07  9.900E+01
  9.157E-04  9.971E-04  3.024E-07  9.900E+01
  9.971E-04  1.086E-03  9.873E-07  3.402E+01
  1.086E-03  1.182E-03  1.262E-06  3.269E+01
  1.182E-03  1.287E-03  5.456E-07  2.995E+01
  1.287E-03  1.402E-03  1.716E-06  3.798E+01
  1.402E-03  1.526E-03  6.588E-07  4.757E+01
  1.526E-03  1.662E-03  1.669E-06  3.001E+01
  1.662E-03  1.810E-03  1.690E-06  4.359E+01
  1.810E-03  1.971E-03  1.912E-06  3.057E+01
  1.971E-03  2.146E-03  1.220E-06  2.266E+01
  2.146E-03  2.337E-03  1.201E-06  2.001E+01
  2.337E-03  2.545E-03  1.329E-06  3.202E+01
  2.545E-03  2.771E-03  1.654E-06  2.603E+01
  2.771E-03  3.017E-03  1.377E-06  2.213E+01
  3.017E-03  3.285E-03  2.379E-06  9.098E+00
  3.285E-03  3.577E-03  3.265E-06  3.400E+01
  3.577E-03  3.895E-03  1.765E-06  7.532E+00
  3.895E-03  4.242E-03  2.461E-06  9.678E+00
  4.242E-03  4.619E-03  2.196E-06  1.662E+01
  4.619E-03  5.030E-03  1.768E-06  2.143E+01
  5.030E-03  5.477E-03  2.838E-06  1.563E+01
  5.477E-03  5.964E-03  2.521E-06  2.436E+01
  5.964E-03  6.494E-03  2.812E-06  1.689E+01
  6.494E-03  7.071E-03  2.815E-06  1.720E+01
  7.071E-03  7.700E-03  2.573E-06  9.652E+00
  7.700E-03  8.384E-03  2.895E-06  1.101E+01
  8.384E-03  9.130E-03  3.467E-06  1.006E+01
  9.130E-03  9.941E-03  4.192E-06  3.347E+00
  9.941E-03  1.083E-02  3.737E-06  5.845E+00
  1.083E-02  1.179E-02  3.731E-06  3.495E+00
  1.179E-02  1.284E-02  4.200E-06  3.802E+00
  1.284E-02  1.398E-02  4.455E-06  4.917E+00
  1.398E-02  1.522E-02  3.813E-06  4.267E+00
  1.522E-02  1.657E-02  4.892E-06  8.503E+00
  1.657E-02  1.805E-02  4.674E-06  3.645E+00
  1.805E-02  1.965E-02  4.713E-06  3.208E+00
  1.965E-02  2.140E-02  5.326E-06  4.258E+00
  2.140E-02  2.330E-02  5.426E-06  1.708E+00
  2.330E-02  2.537E-02  5.717E-06  4.779E+00
  2.537E-02  2.763E-02  5.429E-06  3.496E+00
  2.763E-02  3.008E-02  5.964E-06  1.899E+00
  3.008E-02  3.276E-02  6.033E-06  3.979E+00
  3.276E-02  3.567E-02  6.162E-06  2.231E+00
  3.567E-02  3.884E-02  6.711E-06  3.414E+00
  3.884E-02  4.229E-02  6.632E-06  4.511E+00
  4.229E-02  4.605E-02  7.213E-06  2.022E+00
  4.605E-02  5.015E-02  7.264E-06  2.454E+00
  5.015E-02  5.461E-02  7.210E-06  1.486E+00
  5.461E-02  5.946E-02  7.629E-06  4.676E+00
  5.946E-02  6.475E-02  7.408E-06  2.314E+00
  6.475E-02  7.050E-02  7.427E-06  2.113E+00
  7.050E-02  7.677E-02  7.710E-06  1.431E+00
  7.677E-02  8.360E-02  7.696E-06  1.526E+00
  8.360E-02  9.103E-02  7.392E-06  1.165E+00
  9.103E-02  9.912E-02  7.358E-06  2.652E+00
  9.912E-02  1.079E-01  7.180E-06  2.951E+00
  1.079E-01  1.175E-01  6.695E-06  7.982E-01
  1.175E-01  1.280E-01  6.494E-06  1.983E+00
  1.280E-01  1.394E-01  6.241E-06  1.952E+00
  1.394E-01  1.517E-01  5.696E-06  1.184E+00
  1.517E-01  1.652E-01  5.248E-06  9.574E-01
  1.652E-01  1.799E-01  4.893E-06  8.356E-01
  1.799E-01  1.959E-01  4.388E-06  3.724E-01
  1.959E-01  2.133E-01  4.077E-06  2.103E+00
  2.133E-01  2.323E-01  3.695E-06  1.219E+00
  2.323E-01  2.530E-01  3.361E-06  1.506E+00
  2.530E-01  2.754E-01  2.981E-06  4.948E-01
  2.754E-01  2.999E-01  2.829E-06  8.985E-01
  2.999E-01  3.266E-01  2.727E-06  1.550E+00
  3.266E-01  3.556E-01  2.768E-06  5.668E-01
  3.556E-01  3.873E-01  2.850E-06  1.043E+00
  3.873E-01  4.217E-01  3.304E-06  1.917E+00
  4.217E-01  4.592E-01  3.936E-06  8.027E-01
  4.592E-01  5.000E-01  2.740E-06  9.587E-01


 # double differential distributions
 # number of solid angle intervals           1
 # Block n:            1     0.00000000      :   6.28318548    
  1.000E-04  1.089E-04  0.000E+00  0.000E+00  0.000E+00  6.283E+00
  1.089E-04  1.186E-04  1.726E-07  9.900E+01  0.000E+00  6.283E+00
  1.186E-04  1.291E-04  0.000E+00  0.000E+00  0.000E+00  6.283E+00
  1.291E-04  1.406E-04  0.000E+00  0.000E+00  0.000E+00  6.283E+00
  1.406E-04  1.531E-04  1.379E-07  9.900E+01  0.000E+00  6.283E+00
  1.531E-04  1.667E-04  1.742E-07  9.900E+01  0.000E+00  6.283E+00
  1.667E-04  1.815E-04  0.000E+00  0.000E+00  0.000E+00  6.283E+00
  1.815E-04  1.977E-04  0.000E+00  0.000E+00  0.000E+00  6.283E+00
  1.977E-04  2.152E-04  2.122E-07  6.148E+01  0.000E+00  6.283E+00
  2.152E-04  2.344E-04  1.838E-07  9.900E+01  0.000E+00  6.283E+00
  2.344E-04  2.552E-04  1.084E-07  9.900E+01  0.000E+00  6.283E+00
  2.552E-04  2.779E-04  0.000E+00  0.000E+00  0.000E+00  6.283E+00
  2.779E-04  3.026E-04  1.650E-07  9.900E+01  0.000E+00  6.283E+00
  3.026E-04  3.295E-04  1.790E-07  9.900E+01  0.000E+00  6.283E+00
  3.295E-04  3.588E-04  0.000E+00  0.000E+00  0.000E+00  6.283E+00
  3.588E-04  3.907E-04  8.275E-08  9.900E+01  0.000E+00  6.283E+00
  3.907E-04  4.254E-04  3.427E-07  6.359E+01  0.000E+00  6.283E+00
  4.254E-04  4.632E-04  0.000E+00  0.000E+00  0.000E+00  6.283E+00
  4.632E-04  5.044E-04  0.000E+00  0.000E+00  0.000E+00  6.283E+00
  5.044E-04  5.493E-04  0.000E+00  0.000E+00  0.000E+00  6.283E+00
  5.493E-04  5.981E-04  7.488E-08  6.125E+01  0.000E+00  6.283E+00
  5.981E-04  6.513E-04  0.000E+00  0.000E+00  0.000E+00  6.283E+00
  6.513E-04  7.092E-04  3.291E-08  9.900E+01  0.000E+00  6.283E+00
  7.092E-04  7.722E-04  3.259E-08  9.900E+01  0.000E+00  6.283E+00
  7.722E-04  8.409E-04  4.867E-08  6.133E+01  0.000E+00  6.283E+00
  8.409E-04  9.157E-04  6.503E-08  9.900E+01  0.000E+00  6.283E+00
  9.157E-04  9.971E-04  4.812E-08  9.900E+01  0.000E+00  6.283E+00
  9.971E-04  1.086E-03  1.571E-07  3.402E+01  0.000E+00  6.283E+00
  1.086E-03  1.182E-03  2.009E-07  3.269E+01  0.000E+00  6.283E+00
  1.182E-03  1.287E-03  8.684E-08  2.995E+01  0.000E+00  6.283E+00
  1.287E-03  1.402E-03  2.731E-07  3.798E+01  0.000E+00  6.283E+00
  1.402E-03  1.526E-03  1.049E-07  4.757E+01  0.000E+00  6.283E+00
  1.526E-03  1.662E-03  2.656E-07  3.001E+01  0.000E+00  6.283E+00
  1.662E-03  1.810E-03  2.690E-07  4.359E+01  0.000E+00  6.283E+00
  1.810E-03  1.971E-03  3.043E-07  3.057E+01  0.000E+00  6.283E+00
  1.971E-03  2.146E-03  1.942E-07  2.266E+01  0.000E+00  6.283E+00
  2.146E-03  2.337E-03  1.911E-07  2.001E+01  0.000E+00  6.283E+00
  2.337E-03  2.545E-03  2.115E-07  3.202E+01  0.000E+00  6.283E+00
  2.545E-03  2.771E-03  2.633E-07  2.603E+01  0.000E+00  6.283E+00
  2.771E-03  3.017E-03  2.192E-07  2.213E+01  0.000E+00  6.283E+00
  3.017E-03  3.285E-03  3.786E-07  9.098E+00  0.000E+00  6.283E+00
  3.285E-03  3.577E-03  5.197E-07  3.400E+01  0.000E+00  6.283E+00
  3.577E-03  3.895E-03  2.809E-07  7.532E+00  0.000E+00  6.283E+00
  3.895E-03  4.242E-03  3.917E-07  9.678E+00  0.000E+00  6.283E+00
  4.242E-03  4.619E-03  3.495E-07  1.662E+01  0.000E+00  6.283E+00
  4.619E-03  5.030E-03  2.814E-07  2.143E+01  0.000E+00  6.283E+00
  5.030E-03  5.477E-03  4.517E-07  1.563E+01  0.000E+00  6.283E+00
  5.477E-03  5.964E-03  4.013E-07  2.436E+01  0.000E+00  6.283E+00
  5.964E-03  6.494E-03  4.476E-07  1.689E+01  0.000E+00  6.283E+00
  6.494E-03  7.071E-03  4.480E-07  1.720E+01  0.000E+00  6.283E+00
  7.071E-03  7.700E-03  4.095E-07  9.652E+00  0.000E+00  6.283E+00
  7.700E-03  8.384E-03  4.607E-07  1.101E+01  0.000E+00  6.283E+00
  8.384E-03  9.130E-03  5.518E-07  1.006E+01  0.000E+00  6.283E+00
  9.130E-03  9.941E-03  6.671E-07  3.347E+00  0.000E+00  6.283E+00
  9.941E-03  1.083E-02  5.948E-07  5.845E+00  0.000E+00  6.283E+00
  1.083E-02  1.179E-02  5.938E-07  3.495E+00  0.000E+00  6.283E+00
  1.179E-02  1.284E-02  6.684E-07  3.802E+00  0.000E+00  6.283E+00
  1.284E-02  1.398E-02  7.090E-07  4.917E+00  0.000E+00  6.283E+00
  1.398E-02  1.522E-02  6.069E-07  4.267E+00  0.000E+00  6.283E+00
  1.522E-02  1.657E-02  7.786E-07  8.503E+00  0.000E+00  6.283E+00
  1.657E-02  1.805E-02  7.439E-07  3.645E+00  0.000E+00  6.283E+00
  1.805E-02  1.965E-02  7.501E-07  3.208E+00  0.000E+00  6.283E+00
  1.965E-02  2.140E-02  8.477E-07  4.258E+00  0.000E+00  6.283E+00
  2.140E-02  2.330E-02  8.636E-07  1.708E+00  0.000E+00  6.283E+00
  2.330E-02  2.537E-02  9.098E-07  4.779E+00  0.000E+00  6.283E+00
  2.537E-02  2.763E-02  8.640E-07  3.496E+00  0.000E+00  6.283E+00
  2.763E-02  3.008E-02  9.492E-07  1.899E+00  0.000E+00  6.283E+00
  3.008E-02  3.276E-02  9.602E-07  3.979E+00  0.000E+00  6.283E+00
  3.276E-02  3.567E-02  9.807E-07  2.231E+00  0.000E+00  6.283E+00
  3.567E-02  3.884E-02  1.068E-06  3.414E+00  0.000E+00  6.283E+00
  3.884E-02  4.229E-02  1.056E-06  4.511E+00  0.000E+00  6.283E+00
  4.229E-02  4.605E-02  1.148E-06  2.022E+00  0.000E+00  6.283E+00
  4.605E-02  5.015E-02  1.156E-06  2.454E+00  0.000E+00  6.283E+00
  5.015E-02  5.461E-02  1.148E-06  1.486E+00  0.000E+00  6.283E+00
  5.461E-02  5.946E-02  1.214E-06  4.676E+00  0.000E+00  6.283E+00
  5.946E-02  6.475E-02  1.179E-06  2.314E+00  0.000E+00  6.283E+00
  6.475E-02  7.050E-02  1.182E-06  2.113E+00  0.000E+00  6.283E+00
  7.050E-02  7.677E-02  1.227E-06  1.431E+00  0.000E+00  6.283E+00
  7.677E-02  8.360E-02  1.225E-06  1.526E+00  0.000E+00  6.283E+00
  8.360E-02  9.103E-02  1.176E-06  1.165E+00  0.000E+00  6.283E+00
  9.103E-02  9.912E-02  1.171E-06  2.652E+00  0.000E+00  6.283E+00
  9.912E-02  1.079E-01  1.143E-06  2.951E+00  0.000E+00  6.283E+00
  1.079E-01  1.175E-01  1.066E-06  7.982E-01  0.000E+00  6.283E+00
  1.175E-01  1.280E-01  1.034E-06  1.983E+00  0.000E+00  6.283E+00
  1.280E-01  1.394E-01  9.934E-07  1.952E+00  0.000E+00  6.283E+00
  1.394E-01  1.517E-01  9.066E-07  1.184E+00  0.000E+00  6.283E+00
  1.517E-01  1.652E-01  8.353E-07  9.574E-01  0.000E+00  6.283E+00
  1.652E-01  1.799E-01  7.788E-07  8.356E-01  0.000E+00  6.283E+00
  1.799E-01  1.959E-01  6.983E-07  3.724E-01  0.000E+00  6.283E+00
  1.959E-01  2.133E-01  6.488E-07  2.103E+00  0.000E+00  6.283E+00
  2.133E-01  2.323E-01  5.881E-07  1.219E+00  0.000E+00  6.283E+00
  2.323E-01  2.530E-01  5.350E-07  1.506E+00  0.000E+00  6.283E+00
  2.530E-01  2.754E-01  4.744E-07  4.948E-01  0.000E+00  6.283E+00
  2.754E-01  2.999E-01  4.502E-07  8.985E-01  0.000E+00  6.283E+00
  2.999E-01  3.266E-01  4.341E-07  1.550E+00  0.000E+00  6.283E+00
  3.266E-01  3.556E-01  4.405E-07  5.668E-01  0.000E+00  6.283E+00
  3.556E-01  3.873E-01  4.535E-07  1.043E+00  0.000E+00  6.283E+00
  3.873E-01  4.217E-01  5.259E-07  1.917E+00  0.000E+00  6.283E+00
  4.217E-01  4.592E-01  6.265E-07  8.027E-01  0.000E+00  6.283E+00
  4.592E-01  5.000E-01  4.361E-07  9.587E-01  0.000E+00  6.283E+00
  5.000E-01  5.000E-01  0.000E+00  0.000E+00  0.000E+00  6.283E+00

  1.000E-04  1.000E-04  0.000E+00  0.000E+00  6.283E+00  6.283E+00
  1.089E-04  1.089E-04  0.000E+00  0.000E+00  6.283E+00  6.283E+00
  1.186E-04  1.186E-04  0.000E+00  0.000E+00  6.283E+00  6.283E+00
  1.291E-04  1.291E-04  0.000E+00  0.000E+00  6.283E+00  6.283E+00
  1.406E-04  1.406E-04  0.000E+00  0.000E+00  6.283E+00  6.283E+00
  1.531E-04  1.531E-04  0.000E+00  0.000E+00  6.283E+00  6.283E+00
  1.667E-04  1.667E-04  0.000E+00  0.000E+00  6.283E+00  6.283E+00
  1.815E-04  1.815E-04  0.000E+00  0.000E+00  6.283E+00  6.283E+00
  1.977E-04  1.977E-04  0.000E+00  0.000E+00  6.283E+00  6.283E+00
  2.152E-04  2.152E-04  0.000E+00  0.000E+00  6.283E+00  6.283E+00
  2.344E-04  2.344E-04  0.000E+00  0.000E+00  6.283E+00  6.283E+00
  2.552E-04  2.552E-04  0.000E+00  0.000E+00  6.283E+00  6.283E+00
  2.779E-04  2.779E-04  0.000E+00  0.000E+00  6.283E+00  6.283E+00
  3.026E-04  3.026E-04  0.000E+00  0.000E+00  6.283E+00  6.283E+00
  3.295E-04  3.295E-04  0.000E+00  0.000E+00  6.283E+00  6.283E+00
  3.588E-04  3.588E-04  0.000E+00  0.000E+00  6.283E+00  6.283E+00
  3.907E-04  3.907E-04  0.000E+00  0.000E+00  6.283E+00  6.283E+00
  4.254E-04  4.254E-04  0.000E+00  0.000E+00  6.283E+00  6.283E+00
  4.632E-04  4.632E-04  0.000E+00  0.000E+00  6.283E+00  6.283E+00
  5.044E-04  5.044E-04  0.000E+00  0.000E+00  6.283E+00  6.283E+00
  5.493E-04  5.493E-04  0.000E+00  0.000E+00  6.283E+00  6.283E+00
  5.981E-04  5.981E-04  0.000E+00  0.000E+00  6.283E+00  6.283E+00
  6.513E-04  6.513E-04  0.000E+00  0.000E+00  6.283E+00  6.283E+00
  7.092E-04  7.092E-04  0.000E+00  0.000E+00  6.283E+00  6.283E+00
  7.722E-04  7.722E-04  0.000E+00  0.000E+00  6.283E+00  6.283E+00
  8.409E-04  8.409E-04  0.000E+00  0.000E+00  6.283E+00  6.283E+00
  9.157E-04  9.157E-04  0.000E+00  0.000E+00  6.283E+00  6.283E+00
  9.971E-04  9.971E-04  0.000E+00  0.000E+00  6.283E+00  6.283E+00
  1.086E-03  1.086E-03  0.000E+00  0.000E+00  6.283E+00  6.283E+00
  1.182E-03  1.182E-03  0.000E+00  0.000E+00  6.283E+00  6.283E+00
  1.287E-03  1.287E-03  0.000E+00  0.000E+00  6.283E+00  6.283E+00
  1.402E-03  1.402E-03  0.000E+00  0.000E+00  6.283E+00  6.283E+00
  1.526E-03  1.526E-03  0.000E+00  0.000E+00  6.283E+00  6.283E+00
  1.662E-03  1.662E-03  0.000E+00  0.000E+00  6.283E+00  6.283E+00
  1.810E-03  1.810E-03  0.000E+00  0.000E+00  6.283E+00  6.283E+00
  1.971E-03  1.971E-03  0.000E+00  0.000E+00  6.283E+00  6.283E+00
  2.146E-03  2.146E-03  0.000E+00  0.000E+00  6.283E+00  6.283E+00
  2.337E-03  2.337E-03  0.000E+00  0.000E+00  6.283E+00  6.283E+00
  2.545E-03  2.545E-03  0.000E+00  0.000E+00  6.283E+00  6.283E+00
  2.771E-03  2.771E-03  0.000E+00  0.000E+00  6.283E+00  6.283E+00
  3.017E-03  3.017E-03  0.000E+00  0.000E+00  6.283E+00  6.283E+00
  3.285E-03  3.285E-03  0.000E+00  0.000E+00  6.283E+00  6.283E+00
  3.577E-03  3.577E-03  0.000E+00  0.000E+00  6.283E+00  6.283E+00
  3.895E-03  3.895E-03  0.000E+00  0.000E+00  6.283E+00  6.283E+00
  4.242E-03  4.242E-03  0.000E+00  0.000E+00  6.283E+00  6.283E+00
  4.619E-03  4.619E-03  0.000E+00  0.000E+00  6.283E+00  6.283E+00
  5.030E-03  5.030E-03  0.000E+00  0.000E+00  6.283E+00  6.283E+00
  5.477E-03  5.477E-03  0.000E+00  0.000E+00  6.283E+00  6.283E+00
  5.964E-03  5.964E-03  0.000E+00  0.000E+00  6.283E+00  6.283E+00
  6.494E-03  6.494E-03  0.000E+00  0.000E+00  6.283E+00  6.283E+00
  7.071E-03  7.071E-03  0.000E+00  0.000E+00  6.283E+00  6.283E+00
  7.700E-03  7.700E-03  0.000E+00  0.000E+00  6.283E+00  6.283E+00
  8.384E-03  8.384E-03  0.000E+00  0.000E+00  6.283E+00  6.283E+00
  9.130E-03  9.130E-03  0.000E+00  0.000E+00  6.283E+00  6.283E+00
  9.941E-03  9.941E-03  0.000E+00  0.000E+00  6.283E+00  6.283E+00
  1.083E-02  1.083E-02  0.000E+00  0.000E+00  6.283E+00  6.283E+00
  1.179E-02  1.179E-02  0.000E+00  0.000E+00  6.283E+00  6.283E+00
  1.284E-02  1.284E-02  0.000E+00  0.000E+00  6.283E+00  6.283E+00
  1.398E-02  1.398E-02  0.000E+00  0.000E+00  6.283E+00  6.283E+00
  1.522E-02  1.522E-02  0.000E+00  0.000E+00  6.283E+00  6.283E+00
  1.657E-02  1.657E-02  0.000E+00  0.000E+00  6.283E+00  6.283E+00
  1.805E-02  1.805E-02  0.000E+00  0.000E+00  6.283E+00  6.283E+00
  1.965E-02  1.965E-02  0.000E+00  0.000E+00  6.283E+00  6.283E+00
  2.140E-02  2.140E-02  0.000E+00  0.000E+00  6.283E+00  6.283E+00
  2.330E-02  2.330E-02  0.000E+00  0.000E+00  6.283E+00  6.283E+00
  2.537E-02  2.537E-02  0.000E+00  0.000E+00  6.283E+00  6.283E+00
  2.763E-02  2.763E-02  0.000E+00  0.000E+00  6.283E+00  6.283E+00
  3.008E-02  3.008E-02  0.000E+00  0.000E+00  6.283E+00  6.283E+00
  3.276E-02  3.276E-02  0.000E+00  0.000E+00  6.283E+00  6.283E+00
  3.567E-02  3.567E-02  0.000E+00  0.000E+00  6.283E+00  6.283E+00
  3.884E-02  3.884E-02  0.000E+00  0.000E+00  6.283E+00  6.283E+00
  4.229E-02  4.229E-02  0.000E+00  0.000E+00  6.283E+00  6.283E+00
  4.605E-02  4.605E-02  0.000E+00  0.000E+00  6.283E+00  6.283E+00
  5.015E-02  5.015E-02  0.000E+00  0.000E+00  6.283E+00  6.283E+00
  5.461E-02  5.461E-02  0.000E+00  0.000E+00  6.283E+00  6.283E+00
  5.946E-02  5.946E-02  0.000E+00  0.000E+00  6.283E+00  6.283E+00
  6.475E-02  6.475E-02  0.000E+00  0.000E+00  6.283E+00  6.283E+00
  7.050E-02  7.050E-02  0.000E+00  0.000E+00  6.283E+00  6.283E+00
  7.677E-02  7.677E-02  0.000E+00  0.000E+00  6.283E+00  6.283E+00
  8.360E-02  8.360E-02  0.000E+00  0.000E+00  6.283E+00  6.283E+00
  9.103E-02  9.103E-02  0.000E+00  0.000E+00  6.283E+00  6.283E+00
  9.912E-02  9.912E-02  0.000E+00  0.000E+00  6.283E+00  6.283E+00
  1.079E-01  1.079E-01  0.000E+00  0.000E+00  6.283E+00  6.283E+00
  1.175E-01  1.175E-01  0.000E+00  0.000E+00  6.283E+00  6.283E+00
  1.280E-01  1.280E-01  0.000E+00  0.000E+00  6.283E+00  6.283E+00
  1.394E-01  1.394E-01  0.000E+00  0.000E+00  6.283E+00  6.283E+00
  1.517E-01  1.517E-01  0.000E+00  0.000E+00  6.283E+00  6.283E+00
  1.652E-01  1.652E-01  0.000E+00  0.000E+00  6.283E+00  6.283E+00
  1.799E-01  1.799E-01  0.000E+00  0.000E+00  6.283E+00  6.283E+00
  1.959E-01  1.959E-01  0.000E+00  0.000E+00  6.283E+00  6.283E+00
  2.133E-01  2.133E-01  0.000E+00  0.000E+00  6.283E+00  6.283E+00
  2.323E-01  2.323E-01  0.000E+00  0.000E+00  6.283E+00  6.283E+00
  2.530E-01  2.530E-01  0.000E+00  0.000E+00  6.283E+00  6.283E+00
  2.754E-01  2.754E-01  0.000E+00  0.000E+00  6.283E+00  6.283E+00
  2.999E-01  2.999E-01  0.000E+00  0.000E+00  6.283E+00  6.283E+00
  3.266E-01  3.266E-01  0.000E+00  0.000E+00  6.283E+00  6.283E+00
  3.556E-01  3.556E-01  0.000E+00  0.000E+00  6.283E+00  6.283E+00
  3.873E-01  3.873E-01  0.000E+00  0.000E+00  6.283E+00  6.283E+00
  4.217E-01  4.217E-01  0.000E+00  0.000E+00  6.283E+00  6.283E+00
  4.592E-01  4.592E-01  0.000E+00  0.000E+00  6.283E+00  6.283E+00
  5.000E-01  5.000E-01  0.000E+00  0.000E+00  6.283E+00  6.283E+00
