 # Detector n:            1   BdxPhot   (integrated over solid angle)
 # N. of energy intervals         100
  1.000E-04  1.089E-04  4.160E-04  1.186E+01
  1.089E-04  1.186E-04  4.347E-04  3.357E+01
  1.186E-04  1.291E-04  3.808E-04  2.446E+01
  1.291E-04  1.406E-04  3.936E-05  6.161E+01
  1.406E-04  1.531E-04  7.217E-05  4.337E+01
  1.531E-04  1.667E-04  5.508E-05  9.900E+01
  1.667E-04  1.815E-04  2.042E-04  3.859E+01
  1.815E-04  1.977E-04  1.886E-04  5.420E+01
  1.977E-04  2.152E-04  2.756E-04  1.408E+01
  2.152E-04  2.344E-04  2.851E-04  1.157E+01
  2.344E-04  2.552E-04  6.021E-04  1.522E+01
  2.552E-04  2.779E-04  8.308E-04  2.029E+01
  2.779E-04  3.026E-04  3.970E-04  1.328E+01
  3.026E-04  3.295E-04  6.267E-04  2.980E+01
  3.295E-04  3.588E-04  9.269E-04  2.097E+01
  3.588E-04  3.907E-04  1.085E-03  3.840E+01
  3.907E-04  4.254E-04  7.898E-04  5.538E+00
  4.254E-04  4.632E-04  7.257E-04  1.882E+01
  4.632E-04  5.044E-04  7.423E-04  1.082E+01
  5.044E-04  5.493E-04  1.871E-03  7.539E+00
  5.493E-04  5.981E-04  7.179E-04  1.615E+01
  5.981E-04  6.513E-04  1.006E-03  8.428E+00
  6.513E-04  7.092E-04  8.223E-04  6.309E+00
  7.092E-04  7.722E-04  8.517E-04  1.652E+01
  7.722E-04  8.409E-04  8.338E-04  1.395E+01
  8.409E-04  9.157E-04  9.950E-04  6.570E+00
  9.157E-04  9.971E-04  7.191E-04  1.022E+01
  9.971E-04  1.086E-03  7.234E-04  5.714E+00
  1.086E-03  1.182E-03  5.111E-04  9.868E+00
  1.182E-03  1.287E-03  8.066E-04  5.648E+00
  1.287E-03  1.402E-03  5.543E-04  1.228E+01
  1.402E-03  1.526E-03  4.962E-04  1.123E+01
  1.526E-03  1.662E-03  4.537E-04  5.669E+00
  1.662E-03  1.810E-03  4.384E-04  1.033E+01
  1.810E-03  1.971E-03  3.666E-04  9.836E+00
  1.971E-03  2.146E-03  2.980E-04  7.188E+00
  2.146E-03  2.337E-03  3.298E-04  1.245E+01
  2.337E-03  2.545E-03  2.161E-04  9.475E+00
  2.545E-03  2.771E-03  2.038E-04  3.331E+00
  2.771E-03  3.017E-03  1.417E-04  1.598E+01
  3.017E-03  3.285E-03  1.253E-04  8.531E+00
  3.285E-03  3.577E-03  1.015E-04  7.272E+00
  3.577E-03  3.895E-03  7.590E-05  1.290E+01
  3.895E-03  4.242E-03  4.617E-05  5.195E+00
  4.242E-03  4.619E-03  4.295E-05  3.114E+01
  4.619E-03  5.030E-03  1.375E-05  2.535E+01
  5.030E-03  5.477E-03  1.193E-05  1.755E+01
  5.477E-03  5.964E-03  6.238E-06  3.680E+01
  5.964E-03  6.494E-03  3.973E-06  3.041E+01
  6.494E-03  7.071E-03  3.191E-07  9.900E+01
  7.071E-03  7.700E-03  3.676E-07  9.900E+01
  7.700E-03  8.384E-03  0.000E+00  0.000E+00
  8.384E-03  9.130E-03  0.000E+00  0.000E+00
  9.130E-03  9.941E-03  0.000E+00  0.000E+00
  9.941E-03  1.083E-02  0.000E+00  0.000E+00
  1.083E-02  1.179E-02  0.000E+00  0.000E+00
  1.179E-02  1.284E-02  0.000E+00  0.000E+00
  1.284E-02  1.398E-02  0.000E+00  0.000E+00
  1.398E-02  1.522E-02  0.000E+00  0.000E+00
  1.522E-02  1.657E-02  0.000E+00  0.000E+00
  1.657E-02  1.805E-02  0.000E+00  0.000E+00
  1.805E-02  1.965E-02  0.000E+00  0.000E+00
  1.965E-02  2.140E-02  0.000E+00  0.000E+00
  2.140E-02  2.330E-02  0.000E+00  0.000E+00
  2.330E-02  2.537E-02  0.000E+00  0.000E+00
  2.537E-02  2.763E-02  0.000E+00  0.000E+00
  2.763E-02  3.008E-02  0.000E+00  0.000E+00
  3.008E-02  3.276E-02  0.000E+00  0.000E+00
  3.276E-02  3.567E-02  0.000E+00  0.000E+00
  3.567E-02  3.884E-02  0.000E+00  0.000E+00
  3.884E-02  4.229E-02  0.000E+00  0.000E+00
  4.229E-02  4.605E-02  0.000E+00  0.000E+00
  4.605E-02  5.015E-02  0.000E+00  0.000E+00
  5.015E-02  5.461E-02  0.000E+00  0.000E+00
  5.461E-02  5.946E-02  0.000E+00  0.000E+00
  5.946E-02  6.475E-02  0.000E+00  0.000E+00
  6.475E-02  7.050E-02  0.000E+00  0.000E+00
  7.050E-02  7.677E-02  0.000E+00  0.000E+00
  7.677E-02  8.360E-02  0.000E+00  0.000E+00
  8.360E-02  9.103E-02  0.000E+00  0.000E+00
  9.103E-02  9.912E-02  0.000E+00  0.000E+00
  9.912E-02  1.079E-01  0.000E+00  0.000E+00
  1.079E-01  1.175E-01  0.000E+00  0.000E+00
  1.175E-01  1.280E-01  0.000E+00  0.000E+00
  1.280E-01  1.394E-01  0.000E+00  0.000E+00
  1.394E-01  1.517E-01  0.000E+00  0.000E+00
  1.517E-01  1.652E-01  0.000E+00  0.000E+00
  1.652E-01  1.799E-01  0.000E+00  0.000E+00
  1.799E-01  1.959E-01  0.000E+00  0.000E+00
  1.959E-01  2.133E-01  0.000E+00  0.000E+00
  2.133E-01  2.323E-01  0.000E+00  0.000E+00
  2.323E-01  2.530E-01  0.000E+00  0.000E+00
  2.530E-01  2.754E-01  0.000E+00  0.000E+00
  2.754E-01  2.999E-01  0.000E+00  0.000E+00
  2.999E-01  3.266E-01  0.000E+00  0.000E+00
  3.266E-01  3.556E-01  0.000E+00  0.000E+00
  3.556E-01  3.873E-01  0.000E+00  0.000E+00
  3.873E-01  4.217E-01  0.000E+00  0.000E+00
  4.217E-01  4.592E-01  0.000E+00  0.000E+00
  4.592E-01  5.000E-01  0.000E+00  0.000E+00


 # double differential distributions
 # number of solid angle intervals           1
 # Block n:            1     0.00000000      :   6.28318548    
  1.000E-04  1.089E-04  6.622E-05  1.186E+01  0.000E+00  6.283E+00
  1.089E-04  1.186E-04  6.919E-05  3.357E+01  0.000E+00  6.283E+00
  1.186E-04  1.291E-04  6.061E-05  2.446E+01  0.000E+00  6.283E+00
  1.291E-04  1.406E-04  6.265E-06  6.161E+01  0.000E+00  6.283E+00
  1.406E-04  1.531E-04  1.149E-05  4.337E+01  0.000E+00  6.283E+00
  1.531E-04  1.667E-04  8.766E-06  9.900E+01  0.000E+00  6.283E+00
  1.667E-04  1.815E-04  3.249E-05  3.859E+01  0.000E+00  6.283E+00
  1.815E-04  1.977E-04  3.002E-05  5.420E+01  0.000E+00  6.283E+00
  1.977E-04  2.152E-04  4.386E-05  1.408E+01  0.000E+00  6.283E+00
  2.152E-04  2.344E-04  4.537E-05  1.157E+01  0.000E+00  6.283E+00
  2.344E-04  2.552E-04  9.583E-05  1.522E+01  0.000E+00  6.283E+00
  2.552E-04  2.779E-04  1.322E-04  2.029E+01  0.000E+00  6.283E+00
  2.779E-04  3.026E-04  6.318E-05  1.328E+01  0.000E+00  6.283E+00
  3.026E-04  3.295E-04  9.975E-05  2.980E+01  0.000E+00  6.283E+00
  3.295E-04  3.588E-04  1.475E-04  2.097E+01  0.000E+00  6.283E+00
  3.588E-04  3.907E-04  1.727E-04  3.840E+01  0.000E+00  6.283E+00
  3.907E-04  4.254E-04  1.257E-04  5.538E+00  0.000E+00  6.283E+00
  4.254E-04  4.632E-04  1.155E-04  1.882E+01  0.000E+00  6.283E+00
  4.632E-04  5.044E-04  1.181E-04  1.082E+01  0.000E+00  6.283E+00
  5.044E-04  5.493E-04  2.978E-04  7.539E+00  0.000E+00  6.283E+00
  5.493E-04  5.981E-04  1.143E-04  1.615E+01  0.000E+00  6.283E+00
  5.981E-04  6.513E-04  1.601E-04  8.428E+00  0.000E+00  6.283E+00
  6.513E-04  7.092E-04  1.309E-04  6.309E+00  0.000E+00  6.283E+00
  7.092E-04  7.722E-04  1.356E-04  1.652E+01  0.000E+00  6.283E+00
  7.722E-04  8.409E-04  1.327E-04  1.395E+01  0.000E+00  6.283E+00
  8.409E-04  9.157E-04  1.584E-04  6.570E+00  0.000E+00  6.283E+00
  9.157E-04  9.971E-04  1.144E-04  1.022E+01  0.000E+00  6.283E+00
  9.971E-04  1.086E-03  1.151E-04  5.714E+00  0.000E+00  6.283E+00
  1.086E-03  1.182E-03  8.135E-05  9.868E+00  0.000E+00  6.283E+00
  1.182E-03  1.287E-03  1.284E-04  5.648E+00  0.000E+00  6.283E+00
  1.287E-03  1.402E-03  8.822E-05  1.228E+01  0.000E+00  6.283E+00
  1.402E-03  1.526E-03  7.898E-05  1.123E+01  0.000E+00  6.283E+00
  1.526E-03  1.662E-03  7.221E-05  5.669E+00  0.000E+00  6.283E+00
  1.662E-03  1.810E-03  6.977E-05  1.033E+01  0.000E+00  6.283E+00
  1.810E-03  1.971E-03  5.834E-05  9.836E+00  0.000E+00  6.283E+00
  1.971E-03  2.146E-03  4.743E-05  7.188E+00  0.000E+00  6.283E+00
  2.146E-03  2.337E-03  5.248E-05  1.245E+01  0.000E+00  6.283E+00
  2.337E-03  2.545E-03  3.440E-05  9.475E+00  0.000E+00  6.283E+00
  2.545E-03  2.771E-03  3.244E-05  3.331E+00  0.000E+00  6.283E+00
  2.771E-03  3.017E-03  2.255E-05  1.598E+01  0.000E+00  6.283E+00
  3.017E-03  3.285E-03  1.994E-05  8.531E+00  0.000E+00  6.283E+00
  3.285E-03  3.577E-03  1.616E-05  7.272E+00  0.000E+00  6.283E+00
  3.577E-03  3.895E-03  1.208E-05  1.290E+01  0.000E+00  6.283E+00
  3.895E-03  4.242E-03  7.348E-06  5.195E+00  0.000E+00  6.283E+00
  4.242E-03  4.619E-03  6.835E-06  3.114E+01  0.000E+00  6.283E+00
  4.619E-03  5.030E-03  2.189E-06  2.535E+01  0.000E+00  6.283E+00
  5.030E-03  5.477E-03  1.898E-06  1.755E+01  0.000E+00  6.283E+00
  5.477E-03  5.964E-03  9.928E-07  3.680E+01  0.000E+00  6.283E+00
  5.964E-03  6.494E-03  6.324E-07  3.041E+01  0.000E+00  6.283E+00
  6.494E-03  7.071E-03  5.078E-08  9.900E+01  0.000E+00  6.283E+00
  7.071E-03  7.700E-03  5.851E-08  9.900E+01  0.000E+00  6.283E+00
  7.700E-03  8.384E-03  0.000E+00  0.000E+00  0.000E+00  6.283E+00
  8.384E-03  9.130E-03  0.000E+00  0.000E+00  0.000E+00  6.283E+00
  9.130E-03  9.941E-03  0.000E+00  0.000E+00  0.000E+00  6.283E+00
  9.941E-03  1.083E-02  0.000E+00  0.000E+00  0.000E+00  6.283E+00
  1.083E-02  1.179E-02  0.000E+00  0.000E+00  0.000E+00  6.283E+00
  1.179E-02  1.284E-02  0.000E+00  0.000E+00  0.000E+00  6.283E+00
  1.284E-02  1.398E-02  0.000E+00  0.000E+00  0.000E+00  6.283E+00
  1.398E-02  1.522E-02  0.000E+00  0.000E+00  0.000E+00  6.283E+00
  1.522E-02  1.657E-02  0.000E+00  0.000E+00  0.000E+00  6.283E+00
  1.657E-02  1.805E-02  0.000E+00  0.000E+00  0.000E+00  6.283E+00
  1.805E-02  1.965E-02  0.000E+00  0.000E+00  0.000E+00  6.283E+00
  1.965E-02  2.140E-02  0.000E+00  0.000E+00  0.000E+00  6.283E+00
  2.140E-02  2.330E-02  0.000E+00  0.000E+00  0.000E+00  6.283E+00
  2.330E-02  2.537E-02  0.000E+00  0.000E+00  0.000E+00  6.283E+00
  2.537E-02  2.763E-02  0.000E+00  0.000E+00  0.000E+00  6.283E+00
  2.763E-02  3.008E-02  0.000E+00  0.000E+00  0.000E+00  6.283E+00
  3.008E-02  3.276E-02  0.000E+00  0.000E+00  0.000E+00  6.283E+00
  3.276E-02  3.567E-02  0.000E+00  0.000E+00  0.000E+00  6.283E+00
  3.567E-02  3.884E-02  0.000E+00  0.000E+00  0.000E+00  6.283E+00
  3.884E-02  4.229E-02  0.000E+00  0.000E+00  0.000E+00  6.283E+00
  4.229E-02  4.605E-02  0.000E+00  0.000E+00  0.000E+00  6.283E+00
  4.605E-02  5.015E-02  0.000E+00  0.000E+00  0.000E+00  6.283E+00
  5.015E-02  5.461E-02  0.000E+00  0.000E+00  0.000E+00  6.283E+00
  5.461E-02  5.946E-02  0.000E+00  0.000E+00  0.000E+00  6.283E+00
  5.946E-02  6.475E-02  0.000E+00  0.000E+00  0.000E+00  6.283E+00
  6.475E-02  7.050E-02  0.000E+00  0.000E+00  0.000E+00  6.283E+00
  7.050E-02  7.677E-02  0.000E+00  0.000E+00  0.000E+00  6.283E+00
  7.677E-02  8.360E-02  0.000E+00  0.000E+00  0.000E+00  6.283E+00
  8.360E-02  9.103E-02  0.000E+00  0.000E+00  0.000E+00  6.283E+00
  9.103E-02  9.912E-02  0.000E+00  0.000E+00  0.000E+00  6.283E+00
  9.912E-02  1.079E-01  0.000E+00  0.000E+00  0.000E+00  6.283E+00
  1.079E-01  1.175E-01  0.000E+00  0.000E+00  0.000E+00  6.283E+00
  1.175E-01  1.280E-01  0.000E+00  0.000E+00  0.000E+00  6.283E+00
  1.280E-01  1.394E-01  0.000E+00  0.000E+00  0.000E+00  6.283E+00
  1.394E-01  1.517E-01  0.000E+00  0.000E+00  0.000E+00  6.283E+00
  1.517E-01  1.652E-01  0.000E+00  0.000E+00  0.000E+00  6.283E+00
  1.652E-01  1.799E-01  0.000E+00  0.000E+00  0.000E+00  6.283E+00
  1.799E-01  1.959E-01  0.000E+00  0.000E+00  0.000E+00  6.283E+00
  1.959E-01  2.133E-01  0.000E+00  0.000E+00  0.000E+00  6.283E+00
  2.133E-01  2.323E-01  0.000E+00  0.000E+00  0.000E+00  6.283E+00
  2.323E-01  2.530E-01  0.000E+00  0.000E+00  0.000E+00  6.283E+00
  2.530E-01  2.754E-01  0.000E+00  0.000E+00  0.000E+00  6.283E+00
  2.754E-01  2.999E-01  0.000E+00  0.000E+00  0.000E+00  6.283E+00
  2.999E-01  3.266E-01  0.000E+00  0.000E+00  0.000E+00  6.283E+00
  3.266E-01  3.556E-01  0.000E+00  0.000E+00  0.000E+00  6.283E+00
  3.556E-01  3.873E-01  0.000E+00  0.000E+00  0.000E+00  6.283E+00
  3.873E-01  4.217E-01  0.000E+00  0.000E+00  0.000E+00  6.283E+00
  4.217E-01  4.592E-01  0.000E+00  0.000E+00  0.000E+00  6.283E+00
  4.592E-01  5.000E-01  0.000E+00  0.000E+00  0.000E+00  6.283E+00
  5.000E-01  5.000E-01  0.000E+00  0.000E+00  0.000E+00  6.283E+00

  1.000E-04  1.000E-04  0.000E+00  0.000E+00  6.283E+00  6.283E+00
  1.089E-04  1.089E-04  0.000E+00  0.000E+00  6.283E+00  6.283E+00
  1.186E-04  1.186E-04  0.000E+00  0.000E+00  6.283E+00  6.283E+00
  1.291E-04  1.291E-04  0.000E+00  0.000E+00  6.283E+00  6.283E+00
  1.406E-04  1.406E-04  0.000E+00  0.000E+00  6.283E+00  6.283E+00
  1.531E-04  1.531E-04  0.000E+00  0.000E+00  6.283E+00  6.283E+00
  1.667E-04  1.667E-04  0.000E+00  0.000E+00  6.283E+00  6.283E+00
  1.815E-04  1.815E-04  0.000E+00  0.000E+00  6.283E+00  6.283E+00
  1.977E-04  1.977E-04  0.000E+00  0.000E+00  6.283E+00  6.283E+00
  2.152E-04  2.152E-04  0.000E+00  0.000E+00  6.283E+00  6.283E+00
  2.344E-04  2.344E-04  0.000E+00  0.000E+00  6.283E+00  6.283E+00
  2.552E-04  2.552E-04  0.000E+00  0.000E+00  6.283E+00  6.283E+00
  2.779E-04  2.779E-04  0.000E+00  0.000E+00  6.283E+00  6.283E+00
  3.026E-04  3.026E-04  0.000E+00  0.000E+00  6.283E+00  6.283E+00
  3.295E-04  3.295E-04  0.000E+00  0.000E+00  6.283E+00  6.283E+00
  3.588E-04  3.588E-04  0.000E+00  0.000E+00  6.283E+00  6.283E+00
  3.907E-04  3.907E-04  0.000E+00  0.000E+00  6.283E+00  6.283E+00
  4.254E-04  4.254E-04  0.000E+00  0.000E+00  6.283E+00  6.283E+00
  4.632E-04  4.632E-04  0.000E+00  0.000E+00  6.283E+00  6.283E+00
  5.044E-04  5.044E-04  0.000E+00  0.000E+00  6.283E+00  6.283E+00
  5.493E-04  5.493E-04  0.000E+00  0.000E+00  6.283E+00  6.283E+00
  5.981E-04  5.981E-04  0.000E+00  0.000E+00  6.283E+00  6.283E+00
  6.513E-04  6.513E-04  0.000E+00  0.000E+00  6.283E+00  6.283E+00
  7.092E-04  7.092E-04  0.000E+00  0.000E+00  6.283E+00  6.283E+00
  7.722E-04  7.722E-04  0.000E+00  0.000E+00  6.283E+00  6.283E+00
  8.409E-04  8.409E-04  0.000E+00  0.000E+00  6.283E+00  6.283E+00
  9.157E-04  9.157E-04  0.000E+00  0.000E+00  6.283E+00  6.283E+00
  9.971E-04  9.971E-04  0.000E+00  0.000E+00  6.283E+00  6.283E+00
  1.086E-03  1.086E-03  0.000E+00  0.000E+00  6.283E+00  6.283E+00
  1.182E-03  1.182E-03  0.000E+00  0.000E+00  6.283E+00  6.283E+00
  1.287E-03  1.287E-03  0.000E+00  0.000E+00  6.283E+00  6.283E+00
  1.402E-03  1.402E-03  0.000E+00  0.000E+00  6.283E+00  6.283E+00
  1.526E-03  1.526E-03  0.000E+00  0.000E+00  6.283E+00  6.283E+00
  1.662E-03  1.662E-03  0.000E+00  0.000E+00  6.283E+00  6.283E+00
  1.810E-03  1.810E-03  0.000E+00  0.000E+00  6.283E+00  6.283E+00
  1.971E-03  1.971E-03  0.000E+00  0.000E+00  6.283E+00  6.283E+00
  2.146E-03  2.146E-03  0.000E+00  0.000E+00  6.283E+00  6.283E+00
  2.337E-03  2.337E-03  0.000E+00  0.000E+00  6.283E+00  6.283E+00
  2.545E-03  2.545E-03  0.000E+00  0.000E+00  6.283E+00  6.283E+00
  2.771E-03  2.771E-03  0.000E+00  0.000E+00  6.283E+00  6.283E+00
  3.017E-03  3.017E-03  0.000E+00  0.000E+00  6.283E+00  6.283E+00
  3.285E-03  3.285E-03  0.000E+00  0.000E+00  6.283E+00  6.283E+00
  3.577E-03  3.577E-03  0.000E+00  0.000E+00  6.283E+00  6.283E+00
  3.895E-03  3.895E-03  0.000E+00  0.000E+00  6.283E+00  6.283E+00
  4.242E-03  4.242E-03  0.000E+00  0.000E+00  6.283E+00  6.283E+00
  4.619E-03  4.619E-03  0.000E+00  0.000E+00  6.283E+00  6.283E+00
  5.030E-03  5.030E-03  0.000E+00  0.000E+00  6.283E+00  6.283E+00
  5.477E-03  5.477E-03  0.000E+00  0.000E+00  6.283E+00  6.283E+00
  5.964E-03  5.964E-03  0.000E+00  0.000E+00  6.283E+00  6.283E+00
  6.494E-03  6.494E-03  0.000E+00  0.000E+00  6.283E+00  6.283E+00
  7.071E-03  7.071E-03  0.000E+00  0.000E+00  6.283E+00  6.283E+00
  7.700E-03  7.700E-03  0.000E+00  0.000E+00  6.283E+00  6.283E+00
  8.384E-03  8.384E-03  0.000E+00  0.000E+00  6.283E+00  6.283E+00
  9.130E-03  9.130E-03  0.000E+00  0.000E+00  6.283E+00  6.283E+00
  9.941E-03  9.941E-03  0.000E+00  0.000E+00  6.283E+00  6.283E+00
  1.083E-02  1.083E-02  0.000E+00  0.000E+00  6.283E+00  6.283E+00
  1.179E-02  1.179E-02  0.000E+00  0.000E+00  6.283E+00  6.283E+00
  1.284E-02  1.284E-02  0.000E+00  0.000E+00  6.283E+00  6.283E+00
  1.398E-02  1.398E-02  0.000E+00  0.000E+00  6.283E+00  6.283E+00
  1.522E-02  1.522E-02  0.000E+00  0.000E+00  6.283E+00  6.283E+00
  1.657E-02  1.657E-02  0.000E+00  0.000E+00  6.283E+00  6.283E+00
  1.805E-02  1.805E-02  0.000E+00  0.000E+00  6.283E+00  6.283E+00
  1.965E-02  1.965E-02  0.000E+00  0.000E+00  6.283E+00  6.283E+00
  2.140E-02  2.140E-02  0.000E+00  0.000E+00  6.283E+00  6.283E+00
  2.330E-02  2.330E-02  0.000E+00  0.000E+00  6.283E+00  6.283E+00
  2.537E-02  2.537E-02  0.000E+00  0.000E+00  6.283E+00  6.283E+00
  2.763E-02  2.763E-02  0.000E+00  0.000E+00  6.283E+00  6.283E+00
  3.008E-02  3.008E-02  0.000E+00  0.000E+00  6.283E+00  6.283E+00
  3.276E-02  3.276E-02  0.000E+00  0.000E+00  6.283E+00  6.283E+00
  3.567E-02  3.567E-02  0.000E+00  0.000E+00  6.283E+00  6.283E+00
  3.884E-02  3.884E-02  0.000E+00  0.000E+00  6.283E+00  6.283E+00
  4.229E-02  4.229E-02  0.000E+00  0.000E+00  6.283E+00  6.283E+00
  4.605E-02  4.605E-02  0.000E+00  0.000E+00  6.283E+00  6.283E+00
  5.015E-02  5.015E-02  0.000E+00  0.000E+00  6.283E+00  6.283E+00
  5.461E-02  5.461E-02  0.000E+00  0.000E+00  6.283E+00  6.283E+00
  5.946E-02  5.946E-02  0.000E+00  0.000E+00  6.283E+00  6.283E+00
  6.475E-02  6.475E-02  0.000E+00  0.000E+00  6.283E+00  6.283E+00
  7.050E-02  7.050E-02  0.000E+00  0.000E+00  6.283E+00  6.283E+00
  7.677E-02  7.677E-02  0.000E+00  0.000E+00  6.283E+00  6.283E+00
  8.360E-02  8.360E-02  0.000E+00  0.000E+00  6.283E+00  6.283E+00
  9.103E-02  9.103E-02  0.000E+00  0.000E+00  6.283E+00  6.283E+00
  9.912E-02  9.912E-02  0.000E+00  0.000E+00  6.283E+00  6.283E+00
  1.079E-01  1.079E-01  0.000E+00  0.000E+00  6.283E+00  6.283E+00
  1.175E-01  1.175E-01  0.000E+00  0.000E+00  6.283E+00  6.283E+00
  1.280E-01  1.280E-01  0.000E+00  0.000E+00  6.283E+00  6.283E+00
  1.394E-01  1.394E-01  0.000E+00  0.000E+00  6.283E+00  6.283E+00
  1.517E-01  1.517E-01  0.000E+00  0.000E+00  6.283E+00  6.283E+00
  1.652E-01  1.652E-01  0.000E+00  0.000E+00  6.283E+00  6.283E+00
  1.799E-01  1.799E-01  0.000E+00  0.000E+00  6.283E+00  6.283E+00
  1.959E-01  1.959E-01  0.000E+00  0.000E+00  6.283E+00  6.283E+00
  2.133E-01  2.133E-01  0.000E+00  0.000E+00  6.283E+00  6.283E+00
  2.323E-01  2.323E-01  0.000E+00  0.000E+00  6.283E+00  6.283E+00
  2.530E-01  2.530E-01  0.000E+00  0.000E+00  6.283E+00  6.283E+00
  2.754E-01  2.754E-01  0.000E+00  0.000E+00  6.283E+00  6.283E+00
  2.999E-01  2.999E-01  0.000E+00  0.000E+00  6.283E+00  6.283E+00
  3.266E-01  3.266E-01  0.000E+00  0.000E+00  6.283E+00  6.283E+00
  3.556E-01  3.556E-01  0.000E+00  0.000E+00  6.283E+00  6.283E+00
  3.873E-01  3.873E-01  0.000E+00  0.000E+00  6.283E+00  6.283E+00
  4.217E-01  4.217E-01  0.000E+00  0.000E+00  6.283E+00  6.283E+00
  4.592E-01  4.592E-01  0.000E+00  0.000E+00  6.283E+00  6.283E+00
  5.000E-01  5.000E-01  0.000E+00  0.000E+00  6.283E+00  6.283E+00
