 # Detector n:            1   BdxPhot   (integrated over solid angle)
 # N. of energy intervals         100
  1.000E-04  1.089E-04  3.691E-02  8.465E-01
  1.089E-04  1.186E-04  3.598E-02  6.091E-01
  1.186E-04  1.291E-04  3.402E-02  8.230E-01
  1.291E-04  1.406E-04  3.137E-02  1.162E+00
  1.406E-04  1.531E-04  2.957E-02  7.248E-01
  1.531E-04  1.667E-04  2.921E-02  1.050E+00
  1.667E-04  1.815E-04  3.259E-02  1.340E+00
  1.815E-04  1.977E-04  2.952E-02  1.056E+00
  1.977E-04  2.152E-04  2.561E-02  9.290E-01
  2.152E-04  2.344E-04  2.232E-02  9.893E-01
  2.344E-04  2.552E-04  1.987E-02  6.275E-01
  2.552E-04  2.779E-04  1.955E-02  5.206E+00
  2.779E-04  3.026E-04  1.705E-02  7.782E-01
  3.026E-04  3.295E-04  1.664E-02  1.158E+00
  3.295E-04  3.588E-04  1.654E-02  6.962E-01
  3.588E-04  3.907E-04  1.637E-02  5.255E-01
  3.907E-04  4.254E-04  1.637E-02  6.883E-01
  4.254E-04  4.632E-04  1.696E-02  5.336E-01
  4.632E-04  5.044E-04  1.052E-01  2.372E-01
  5.044E-04  5.493E-04  1.190E-04  2.234E+00
  5.493E-04  5.981E-04  8.866E-05  1.711E+01
  5.981E-04  6.513E-04  7.383E-05  1.253E+01
  6.513E-04  7.092E-04  5.972E-05  5.846E+00
  7.092E-04  7.722E-04  7.745E-05  8.359E+00
  7.722E-04  8.409E-04  6.207E-05  1.242E+01
  8.409E-04  9.157E-04  6.642E-05  1.021E+01
  9.157E-04  9.971E-04  5.840E-05  1.182E+01
  9.971E-04  1.086E-03  6.077E-05  1.357E+01
  1.086E-03  1.182E-03  5.314E-05  9.280E+00
  1.182E-03  1.287E-03  5.074E-05  1.084E+01
  1.287E-03  1.402E-03  5.932E-05  1.506E+01
  1.402E-03  1.526E-03  5.743E-05  8.699E+00
  1.526E-03  1.662E-03  5.056E-05  1.252E+01
  1.662E-03  1.810E-03  4.790E-05  6.260E+00
  1.810E-03  1.971E-03  5.105E-05  6.745E+00
  1.971E-03  2.146E-03  5.220E-05  1.089E+01
  2.146E-03  2.337E-03  9.520E-04  1.345E+00
  2.337E-03  2.545E-03  6.634E-07  5.080E+01
  2.545E-03  2.771E-03  1.850E-07  4.493E+01
  2.771E-03  3.017E-03  4.406E-07  4.585E+01
  3.017E-03  3.285E-03  0.000E+00  0.000E+00
  3.285E-03  3.577E-03  1.057E-06  1.646E+01
  3.577E-03  3.895E-03  1.125E-06  5.529E+01
  3.895E-03  4.242E-03  6.103E-07  4.178E+01
  4.242E-03  4.619E-03  1.313E-06  8.244E+00
  4.619E-03  5.030E-03  2.205E-06  1.931E+01
  5.030E-03  5.477E-03  3.014E-07  7.091E+01
  5.477E-03  5.964E-03  3.066E-07  4.328E+01
  5.964E-03  6.494E-03  5.635E-07  4.000E+01
  6.494E-03  7.071E-03  8.318E-07  1.669E+01
  7.071E-03  7.700E-03  2.476E-07  4.447E+01
  7.700E-03  8.384E-03  1.644E-07  7.508E+01
  8.384E-03  9.130E-03  2.032E-08  9.900E+01
  9.130E-03  9.941E-03  2.023E-07  3.137E+01
  9.941E-03  1.083E-02  0.000E+00  0.000E+00
  1.083E-02  1.179E-02  2.852E-07  2.694E+01
  1.179E-02  1.284E-02  0.000E+00  0.000E+00
  1.284E-02  1.398E-02  0.000E+00  0.000E+00
  1.398E-02  1.522E-02  0.000E+00  0.000E+00
  1.522E-02  1.657E-02  0.000E+00  0.000E+00
  1.657E-02  1.805E-02  0.000E+00  0.000E+00
  1.805E-02  1.965E-02  0.000E+00  0.000E+00
  1.965E-02  2.140E-02  0.000E+00  0.000E+00
  2.140E-02  2.330E-02  0.000E+00  0.000E+00
  2.330E-02  2.537E-02  0.000E+00  0.000E+00
  2.537E-02  2.763E-02  0.000E+00  0.000E+00
  2.763E-02  3.008E-02  0.000E+00  0.000E+00
  3.008E-02  3.276E-02  0.000E+00  0.000E+00
  3.276E-02  3.567E-02  0.000E+00  0.000E+00
  3.567E-02  3.884E-02  0.000E+00  0.000E+00
  3.884E-02  4.229E-02  0.000E+00  0.000E+00
  4.229E-02  4.605E-02  0.000E+00  0.000E+00
  4.605E-02  5.015E-02  0.000E+00  0.000E+00
  5.015E-02  5.461E-02  0.000E+00  0.000E+00
  5.461E-02  5.946E-02  0.000E+00  0.000E+00
  5.946E-02  6.475E-02  0.000E+00  0.000E+00
  6.475E-02  7.050E-02  0.000E+00  0.000E+00
  7.050E-02  7.677E-02  0.000E+00  0.000E+00
  7.677E-02  8.360E-02  0.000E+00  0.000E+00
  8.360E-02  9.103E-02  0.000E+00  0.000E+00
  9.103E-02  9.912E-02  0.000E+00  0.000E+00
  9.912E-02  1.079E-01  0.000E+00  0.000E+00
  1.079E-01  1.175E-01  0.000E+00  0.000E+00
  1.175E-01  1.280E-01  0.000E+00  0.000E+00
  1.280E-01  1.394E-01  0.000E+00  0.000E+00
  1.394E-01  1.517E-01  0.000E+00  0.000E+00
  1.517E-01  1.652E-01  0.000E+00  0.000E+00
  1.652E-01  1.799E-01  0.000E+00  0.000E+00
  1.799E-01  1.959E-01  0.000E+00  0.000E+00
  1.959E-01  2.133E-01  0.000E+00  0.000E+00
  2.133E-01  2.323E-01  0.000E+00  0.000E+00
  2.323E-01  2.530E-01  0.000E+00  0.000E+00
  2.530E-01  2.754E-01  0.000E+00  0.000E+00
  2.754E-01  2.999E-01  0.000E+00  0.000E+00
  2.999E-01  3.266E-01  0.000E+00  0.000E+00
  3.266E-01  3.556E-01  0.000E+00  0.000E+00
  3.556E-01  3.873E-01  0.000E+00  0.000E+00
  3.873E-01  4.217E-01  0.000E+00  0.000E+00
  4.217E-01  4.592E-01  0.000E+00  0.000E+00
  4.592E-01  5.000E-01  0.000E+00  0.000E+00


 # double differential distributions
 # number of solid angle intervals           1
 # Block n:            1     0.00000000      :   6.28318548    
  1.000E-04  1.089E-04  5.874E-03  8.465E-01  0.000E+00  6.283E+00
  1.089E-04  1.186E-04  5.726E-03  6.091E-01  0.000E+00  6.283E+00
  1.186E-04  1.291E-04  5.414E-03  8.230E-01  0.000E+00  6.283E+00
  1.291E-04  1.406E-04  4.992E-03  1.162E+00  0.000E+00  6.283E+00
  1.406E-04  1.531E-04  4.707E-03  7.248E-01  0.000E+00  6.283E+00
  1.531E-04  1.667E-04  4.649E-03  1.050E+00  0.000E+00  6.283E+00
  1.667E-04  1.815E-04  5.186E-03  1.340E+00  0.000E+00  6.283E+00
  1.815E-04  1.977E-04  4.699E-03  1.056E+00  0.000E+00  6.283E+00
  1.977E-04  2.152E-04  4.075E-03  9.290E-01  0.000E+00  6.283E+00
  2.152E-04  2.344E-04  3.552E-03  9.893E-01  0.000E+00  6.283E+00
  2.344E-04  2.552E-04  3.163E-03  6.275E-01  0.000E+00  6.283E+00
  2.552E-04  2.779E-04  3.111E-03  5.206E+00  0.000E+00  6.283E+00
  2.779E-04  3.026E-04  2.713E-03  7.782E-01  0.000E+00  6.283E+00
  3.026E-04  3.295E-04  2.649E-03  1.158E+00  0.000E+00  6.283E+00
  3.295E-04  3.588E-04  2.633E-03  6.962E-01  0.000E+00  6.283E+00
  3.588E-04  3.907E-04  2.606E-03  5.255E-01  0.000E+00  6.283E+00
  3.907E-04  4.254E-04  2.606E-03  6.883E-01  0.000E+00  6.283E+00
  4.254E-04  4.632E-04  2.699E-03  5.336E-01  0.000E+00  6.283E+00
  4.632E-04  5.044E-04  1.674E-02  2.372E-01  0.000E+00  6.283E+00
  5.044E-04  5.493E-04  1.894E-05  2.234E+00  0.000E+00  6.283E+00
  5.493E-04  5.981E-04  1.411E-05  1.711E+01  0.000E+00  6.283E+00
  5.981E-04  6.513E-04  1.175E-05  1.253E+01  0.000E+00  6.283E+00
  6.513E-04  7.092E-04  9.505E-06  5.846E+00  0.000E+00  6.283E+00
  7.092E-04  7.722E-04  1.233E-05  8.359E+00  0.000E+00  6.283E+00
  7.722E-04  8.409E-04  9.878E-06  1.242E+01  0.000E+00  6.283E+00
  8.409E-04  9.157E-04  1.057E-05  1.021E+01  0.000E+00  6.283E+00
  9.157E-04  9.971E-04  9.295E-06  1.182E+01  0.000E+00  6.283E+00
  9.971E-04  1.086E-03  9.672E-06  1.357E+01  0.000E+00  6.283E+00
  1.086E-03  1.182E-03  8.457E-06  9.280E+00  0.000E+00  6.283E+00
  1.182E-03  1.287E-03  8.075E-06  1.084E+01  0.000E+00  6.283E+00
  1.287E-03  1.402E-03  9.442E-06  1.506E+01  0.000E+00  6.283E+00
  1.402E-03  1.526E-03  9.140E-06  8.699E+00  0.000E+00  6.283E+00
  1.526E-03  1.662E-03  8.047E-06  1.252E+01  0.000E+00  6.283E+00
  1.662E-03  1.810E-03  7.624E-06  6.260E+00  0.000E+00  6.283E+00
  1.810E-03  1.971E-03  8.125E-06  6.745E+00  0.000E+00  6.283E+00
  1.971E-03  2.146E-03  8.308E-06  1.089E+01  0.000E+00  6.283E+00
  2.146E-03  2.337E-03  1.515E-04  1.345E+00  0.000E+00  6.283E+00
  2.337E-03  2.545E-03  1.056E-07  5.080E+01  0.000E+00  6.283E+00
  2.545E-03  2.771E-03  2.945E-08  4.493E+01  0.000E+00  6.283E+00
  2.771E-03  3.017E-03  7.012E-08  4.585E+01  0.000E+00  6.283E+00
  3.017E-03  3.285E-03  0.000E+00  0.000E+00  0.000E+00  6.283E+00
  3.285E-03  3.577E-03  1.683E-07  1.646E+01  0.000E+00  6.283E+00
  3.577E-03  3.895E-03  1.790E-07  5.529E+01  0.000E+00  6.283E+00
  3.895E-03  4.242E-03  9.713E-08  4.178E+01  0.000E+00  6.283E+00
  4.242E-03  4.619E-03  2.089E-07  8.244E+00  0.000E+00  6.283E+00
  4.619E-03  5.030E-03  3.510E-07  1.931E+01  0.000E+00  6.283E+00
  5.030E-03  5.477E-03  4.796E-08  7.091E+01  0.000E+00  6.283E+00
  5.477E-03  5.964E-03  4.879E-08  4.328E+01  0.000E+00  6.283E+00
  5.964E-03  6.494E-03  8.969E-08  4.000E+01  0.000E+00  6.283E+00
  6.494E-03  7.071E-03  1.324E-07  1.669E+01  0.000E+00  6.283E+00
  7.071E-03  7.700E-03  3.941E-08  4.447E+01  0.000E+00  6.283E+00
  7.700E-03  8.384E-03  2.616E-08  7.508E+01  0.000E+00  6.283E+00
  8.384E-03  9.130E-03  3.234E-09  9.900E+01  0.000E+00  6.283E+00
  9.130E-03  9.941E-03  3.220E-08  3.137E+01  0.000E+00  6.283E+00
  9.941E-03  1.083E-02  0.000E+00  0.000E+00  0.000E+00  6.283E+00
  1.083E-02  1.179E-02  4.539E-08  2.694E+01  0.000E+00  6.283E+00
  1.179E-02  1.284E-02  0.000E+00  0.000E+00  0.000E+00  6.283E+00
  1.284E-02  1.398E-02  0.000E+00  0.000E+00  0.000E+00  6.283E+00
  1.398E-02  1.522E-02  0.000E+00  0.000E+00  0.000E+00  6.283E+00
  1.522E-02  1.657E-02  0.000E+00  0.000E+00  0.000E+00  6.283E+00
  1.657E-02  1.805E-02  0.000E+00  0.000E+00  0.000E+00  6.283E+00
  1.805E-02  1.965E-02  0.000E+00  0.000E+00  0.000E+00  6.283E+00
  1.965E-02  2.140E-02  0.000E+00  0.000E+00  0.000E+00  6.283E+00
  2.140E-02  2.330E-02  0.000E+00  0.000E+00  0.000E+00  6.283E+00
  2.330E-02  2.537E-02  0.000E+00  0.000E+00  0.000E+00  6.283E+00
  2.537E-02  2.763E-02  0.000E+00  0.000E+00  0.000E+00  6.283E+00
  2.763E-02  3.008E-02  0.000E+00  0.000E+00  0.000E+00  6.283E+00
  3.008E-02  3.276E-02  0.000E+00  0.000E+00  0.000E+00  6.283E+00
  3.276E-02  3.567E-02  0.000E+00  0.000E+00  0.000E+00  6.283E+00
  3.567E-02  3.884E-02  0.000E+00  0.000E+00  0.000E+00  6.283E+00
  3.884E-02  4.229E-02  0.000E+00  0.000E+00  0.000E+00  6.283E+00
  4.229E-02  4.605E-02  0.000E+00  0.000E+00  0.000E+00  6.283E+00
  4.605E-02  5.015E-02  0.000E+00  0.000E+00  0.000E+00  6.283E+00
  5.015E-02  5.461E-02  0.000E+00  0.000E+00  0.000E+00  6.283E+00
  5.461E-02  5.946E-02  0.000E+00  0.000E+00  0.000E+00  6.283E+00
  5.946E-02  6.475E-02  0.000E+00  0.000E+00  0.000E+00  6.283E+00
  6.475E-02  7.050E-02  0.000E+00  0.000E+00  0.000E+00  6.283E+00
  7.050E-02  7.677E-02  0.000E+00  0.000E+00  0.000E+00  6.283E+00
  7.677E-02  8.360E-02  0.000E+00  0.000E+00  0.000E+00  6.283E+00
  8.360E-02  9.103E-02  0.000E+00  0.000E+00  0.000E+00  6.283E+00
  9.103E-02  9.912E-02  0.000E+00  0.000E+00  0.000E+00  6.283E+00
  9.912E-02  1.079E-01  0.000E+00  0.000E+00  0.000E+00  6.283E+00
  1.079E-01  1.175E-01  0.000E+00  0.000E+00  0.000E+00  6.283E+00
  1.175E-01  1.280E-01  0.000E+00  0.000E+00  0.000E+00  6.283E+00
  1.280E-01  1.394E-01  0.000E+00  0.000E+00  0.000E+00  6.283E+00
  1.394E-01  1.517E-01  0.000E+00  0.000E+00  0.000E+00  6.283E+00
  1.517E-01  1.652E-01  0.000E+00  0.000E+00  0.000E+00  6.283E+00
  1.652E-01  1.799E-01  0.000E+00  0.000E+00  0.000E+00  6.283E+00
  1.799E-01  1.959E-01  0.000E+00  0.000E+00  0.000E+00  6.283E+00
  1.959E-01  2.133E-01  0.000E+00  0.000E+00  0.000E+00  6.283E+00
  2.133E-01  2.323E-01  0.000E+00  0.000E+00  0.000E+00  6.283E+00
  2.323E-01  2.530E-01  0.000E+00  0.000E+00  0.000E+00  6.283E+00
  2.530E-01  2.754E-01  0.000E+00  0.000E+00  0.000E+00  6.283E+00
  2.754E-01  2.999E-01  0.000E+00  0.000E+00  0.000E+00  6.283E+00
  2.999E-01  3.266E-01  0.000E+00  0.000E+00  0.000E+00  6.283E+00
  3.266E-01  3.556E-01  0.000E+00  0.000E+00  0.000E+00  6.283E+00
  3.556E-01  3.873E-01  0.000E+00  0.000E+00  0.000E+00  6.283E+00
  3.873E-01  4.217E-01  0.000E+00  0.000E+00  0.000E+00  6.283E+00
  4.217E-01  4.592E-01  0.000E+00  0.000E+00  0.000E+00  6.283E+00
  4.592E-01  5.000E-01  0.000E+00  0.000E+00  0.000E+00  6.283E+00
  5.000E-01  5.000E-01  0.000E+00  0.000E+00  0.000E+00  6.283E+00

  1.000E-04  1.000E-04  0.000E+00  0.000E+00  6.283E+00  6.283E+00
  1.089E-04  1.089E-04  0.000E+00  0.000E+00  6.283E+00  6.283E+00
  1.186E-04  1.186E-04  0.000E+00  0.000E+00  6.283E+00  6.283E+00
  1.291E-04  1.291E-04  0.000E+00  0.000E+00  6.283E+00  6.283E+00
  1.406E-04  1.406E-04  0.000E+00  0.000E+00  6.283E+00  6.283E+00
  1.531E-04  1.531E-04  0.000E+00  0.000E+00  6.283E+00  6.283E+00
  1.667E-04  1.667E-04  0.000E+00  0.000E+00  6.283E+00  6.283E+00
  1.815E-04  1.815E-04  0.000E+00  0.000E+00  6.283E+00  6.283E+00
  1.977E-04  1.977E-04  0.000E+00  0.000E+00  6.283E+00  6.283E+00
  2.152E-04  2.152E-04  0.000E+00  0.000E+00  6.283E+00  6.283E+00
  2.344E-04  2.344E-04  0.000E+00  0.000E+00  6.283E+00  6.283E+00
  2.552E-04  2.552E-04  0.000E+00  0.000E+00  6.283E+00  6.283E+00
  2.779E-04  2.779E-04  0.000E+00  0.000E+00  6.283E+00  6.283E+00
  3.026E-04  3.026E-04  0.000E+00  0.000E+00  6.283E+00  6.283E+00
  3.295E-04  3.295E-04  0.000E+00  0.000E+00  6.283E+00  6.283E+00
  3.588E-04  3.588E-04  0.000E+00  0.000E+00  6.283E+00  6.283E+00
  3.907E-04  3.907E-04  0.000E+00  0.000E+00  6.283E+00  6.283E+00
  4.254E-04  4.254E-04  0.000E+00  0.000E+00  6.283E+00  6.283E+00
  4.632E-04  4.632E-04  0.000E+00  0.000E+00  6.283E+00  6.283E+00
  5.044E-04  5.044E-04  0.000E+00  0.000E+00  6.283E+00  6.283E+00
  5.493E-04  5.493E-04  0.000E+00  0.000E+00  6.283E+00  6.283E+00
  5.981E-04  5.981E-04  0.000E+00  0.000E+00  6.283E+00  6.283E+00
  6.513E-04  6.513E-04  0.000E+00  0.000E+00  6.283E+00  6.283E+00
  7.092E-04  7.092E-04  0.000E+00  0.000E+00  6.283E+00  6.283E+00
  7.722E-04  7.722E-04  0.000E+00  0.000E+00  6.283E+00  6.283E+00
  8.409E-04  8.409E-04  0.000E+00  0.000E+00  6.283E+00  6.283E+00
  9.157E-04  9.157E-04  0.000E+00  0.000E+00  6.283E+00  6.283E+00
  9.971E-04  9.971E-04  0.000E+00  0.000E+00  6.283E+00  6.283E+00
  1.086E-03  1.086E-03  0.000E+00  0.000E+00  6.283E+00  6.283E+00
  1.182E-03  1.182E-03  0.000E+00  0.000E+00  6.283E+00  6.283E+00
  1.287E-03  1.287E-03  0.000E+00  0.000E+00  6.283E+00  6.283E+00
  1.402E-03  1.402E-03  0.000E+00  0.000E+00  6.283E+00  6.283E+00
  1.526E-03  1.526E-03  0.000E+00  0.000E+00  6.283E+00  6.283E+00
  1.662E-03  1.662E-03  0.000E+00  0.000E+00  6.283E+00  6.283E+00
  1.810E-03  1.810E-03  0.000E+00  0.000E+00  6.283E+00  6.283E+00
  1.971E-03  1.971E-03  0.000E+00  0.000E+00  6.283E+00  6.283E+00
  2.146E-03  2.146E-03  0.000E+00  0.000E+00  6.283E+00  6.283E+00
  2.337E-03  2.337E-03  0.000E+00  0.000E+00  6.283E+00  6.283E+00
  2.545E-03  2.545E-03  0.000E+00  0.000E+00  6.283E+00  6.283E+00
  2.771E-03  2.771E-03  0.000E+00  0.000E+00  6.283E+00  6.283E+00
  3.017E-03  3.017E-03  0.000E+00  0.000E+00  6.283E+00  6.283E+00
  3.285E-03  3.285E-03  0.000E+00  0.000E+00  6.283E+00  6.283E+00
  3.577E-03  3.577E-03  0.000E+00  0.000E+00  6.283E+00  6.283E+00
  3.895E-03  3.895E-03  0.000E+00  0.000E+00  6.283E+00  6.283E+00
  4.242E-03  4.242E-03  0.000E+00  0.000E+00  6.283E+00  6.283E+00
  4.619E-03  4.619E-03  0.000E+00  0.000E+00  6.283E+00  6.283E+00
  5.030E-03  5.030E-03  0.000E+00  0.000E+00  6.283E+00  6.283E+00
  5.477E-03  5.477E-03  0.000E+00  0.000E+00  6.283E+00  6.283E+00
  5.964E-03  5.964E-03  0.000E+00  0.000E+00  6.283E+00  6.283E+00
  6.494E-03  6.494E-03  0.000E+00  0.000E+00  6.283E+00  6.283E+00
  7.071E-03  7.071E-03  0.000E+00  0.000E+00  6.283E+00  6.283E+00
  7.700E-03  7.700E-03  0.000E+00  0.000E+00  6.283E+00  6.283E+00
  8.384E-03  8.384E-03  0.000E+00  0.000E+00  6.283E+00  6.283E+00
  9.130E-03  9.130E-03  0.000E+00  0.000E+00  6.283E+00  6.283E+00
  9.941E-03  9.941E-03  0.000E+00  0.000E+00  6.283E+00  6.283E+00
  1.083E-02  1.083E-02  0.000E+00  0.000E+00  6.283E+00  6.283E+00
  1.179E-02  1.179E-02  0.000E+00  0.000E+00  6.283E+00  6.283E+00
  1.284E-02  1.284E-02  0.000E+00  0.000E+00  6.283E+00  6.283E+00
  1.398E-02  1.398E-02  0.000E+00  0.000E+00  6.283E+00  6.283E+00
  1.522E-02  1.522E-02  0.000E+00  0.000E+00  6.283E+00  6.283E+00
  1.657E-02  1.657E-02  0.000E+00  0.000E+00  6.283E+00  6.283E+00
  1.805E-02  1.805E-02  0.000E+00  0.000E+00  6.283E+00  6.283E+00
  1.965E-02  1.965E-02  0.000E+00  0.000E+00  6.283E+00  6.283E+00
  2.140E-02  2.140E-02  0.000E+00  0.000E+00  6.283E+00  6.283E+00
  2.330E-02  2.330E-02  0.000E+00  0.000E+00  6.283E+00  6.283E+00
  2.537E-02  2.537E-02  0.000E+00  0.000E+00  6.283E+00  6.283E+00
  2.763E-02  2.763E-02  0.000E+00  0.000E+00  6.283E+00  6.283E+00
  3.008E-02  3.008E-02  0.000E+00  0.000E+00  6.283E+00  6.283E+00
  3.276E-02  3.276E-02  0.000E+00  0.000E+00  6.283E+00  6.283E+00
  3.567E-02  3.567E-02  0.000E+00  0.000E+00  6.283E+00  6.283E+00
  3.884E-02  3.884E-02  0.000E+00  0.000E+00  6.283E+00  6.283E+00
  4.229E-02  4.229E-02  0.000E+00  0.000E+00  6.283E+00  6.283E+00
  4.605E-02  4.605E-02  0.000E+00  0.000E+00  6.283E+00  6.283E+00
  5.015E-02  5.015E-02  0.000E+00  0.000E+00  6.283E+00  6.283E+00
  5.461E-02  5.461E-02  0.000E+00  0.000E+00  6.283E+00  6.283E+00
  5.946E-02  5.946E-02  0.000E+00  0.000E+00  6.283E+00  6.283E+00
  6.475E-02  6.475E-02  0.000E+00  0.000E+00  6.283E+00  6.283E+00
  7.050E-02  7.050E-02  0.000E+00  0.000E+00  6.283E+00  6.283E+00
  7.677E-02  7.677E-02  0.000E+00  0.000E+00  6.283E+00  6.283E+00
  8.360E-02  8.360E-02  0.000E+00  0.000E+00  6.283E+00  6.283E+00
  9.103E-02  9.103E-02  0.000E+00  0.000E+00  6.283E+00  6.283E+00
  9.912E-02  9.912E-02  0.000E+00  0.000E+00  6.283E+00  6.283E+00
  1.079E-01  1.079E-01  0.000E+00  0.000E+00  6.283E+00  6.283E+00
  1.175E-01  1.175E-01  0.000E+00  0.000E+00  6.283E+00  6.283E+00
  1.280E-01  1.280E-01  0.000E+00  0.000E+00  6.283E+00  6.283E+00
  1.394E-01  1.394E-01  0.000E+00  0.000E+00  6.283E+00  6.283E+00
  1.517E-01  1.517E-01  0.000E+00  0.000E+00  6.283E+00  6.283E+00
  1.652E-01  1.652E-01  0.000E+00  0.000E+00  6.283E+00  6.283E+00
  1.799E-01  1.799E-01  0.000E+00  0.000E+00  6.283E+00  6.283E+00
  1.959E-01  1.959E-01  0.000E+00  0.000E+00  6.283E+00  6.283E+00
  2.133E-01  2.133E-01  0.000E+00  0.000E+00  6.283E+00  6.283E+00
  2.323E-01  2.323E-01  0.000E+00  0.000E+00  6.283E+00  6.283E+00
  2.530E-01  2.530E-01  0.000E+00  0.000E+00  6.283E+00  6.283E+00
  2.754E-01  2.754E-01  0.000E+00  0.000E+00  6.283E+00  6.283E+00
  2.999E-01  2.999E-01  0.000E+00  0.000E+00  6.283E+00  6.283E+00
  3.266E-01  3.266E-01  0.000E+00  0.000E+00  6.283E+00  6.283E+00
  3.556E-01  3.556E-01  0.000E+00  0.000E+00  6.283E+00  6.283E+00
  3.873E-01  3.873E-01  0.000E+00  0.000E+00  6.283E+00  6.283E+00
  4.217E-01  4.217E-01  0.000E+00  0.000E+00  6.283E+00  6.283E+00
  4.592E-01  4.592E-01  0.000E+00  0.000E+00  6.283E+00  6.283E+00
  5.000E-01  5.000E-01  0.000E+00  0.000E+00  6.283E+00  6.283E+00
