 # Detector n:            1   BdxPhot   (integrated over solid angle)
 # N. of energy intervals         100
  1.000E-04  1.089E-04  2.042E-02  2.789E+00
  1.089E-04  1.186E-04  2.090E-02  2.616E+00
  1.186E-04  1.291E-04  1.951E-02  2.736E+00
  1.291E-04  1.406E-04  1.802E-02  7.822E-01
  1.406E-04  1.531E-04  1.702E-02  2.359E+00
  1.531E-04  1.667E-04  1.723E-02  1.243E+00
  1.667E-04  1.815E-04  2.086E-02  1.873E+00
  1.815E-04  1.977E-04  1.848E-02  1.253E+00
  1.977E-04  2.152E-04  1.528E-02  3.167E+00
  2.152E-04  2.344E-04  1.319E-02  5.951E-01
  2.344E-04  2.552E-04  1.209E-02  3.209E+00
  2.552E-04  2.779E-04  1.110E-02  1.904E+00
  2.779E-04  3.026E-04  1.017E-02  1.769E+00
  3.026E-04  3.295E-04  9.375E-03  1.566E+00
  3.295E-04  3.588E-04  9.276E-03  1.444E+00
  3.588E-04  3.907E-04  9.234E-03  1.407E+00
  3.907E-04  4.254E-04  9.499E-03  5.246E-01
  4.254E-04  4.632E-04  9.804E-03  8.281E-01
  4.632E-04  5.044E-04  7.847E-02  1.137E-01
  5.044E-04  5.493E-04  1.054E-03  2.309E+00
  5.493E-04  5.981E-04  4.770E-04  3.144E+00
  5.981E-04  6.513E-04  3.679E-04  3.891E+00
  6.513E-04  7.092E-04  3.014E-04  2.047E+00
  7.092E-04  7.722E-04  4.286E-04  1.340E+01
  7.722E-04  8.409E-04  2.383E-04  7.611E+00
  8.409E-04  9.157E-04  2.493E-04  3.188E+00
  9.157E-04  9.971E-04  2.452E-04  4.493E+00
  9.971E-04  1.086E-03  2.076E-04  5.052E+00
  1.086E-03  1.182E-03  1.928E-04  4.006E+00
  1.182E-03  1.287E-03  2.065E-04  7.212E+00
  1.287E-03  1.402E-03  1.719E-04  7.179E+00
  1.402E-03  1.526E-03  1.828E-04  7.241E+00
  1.526E-03  1.662E-03  1.729E-04  4.340E+00
  1.662E-03  1.810E-03  1.694E-04  6.439E+00
  1.810E-03  1.971E-03  1.650E-04  4.106E+00
  1.971E-03  2.146E-03  3.335E-04  2.298E+00
  2.146E-03  2.337E-03  7.987E-04  1.299E+00
  2.337E-03  2.545E-03  1.168E-04  6.302E+00
  2.545E-03  2.771E-03  1.205E-04  1.308E+01
  2.771E-03  3.017E-03  1.571E-04  2.895E+00
  3.017E-03  3.285E-03  1.718E-04  7.532E+00
  3.285E-03  3.577E-03  1.203E-04  4.167E+00
  3.577E-03  3.895E-03  1.546E-04  6.086E+00
  3.895E-03  4.242E-03  1.074E-04  3.652E+00
  4.242E-03  4.619E-03  3.898E-03  7.929E-01
  4.619E-03  5.030E-03  1.549E-05  6.690E+00
  5.030E-03  5.477E-03  1.617E-05  3.679E+00
  5.477E-03  5.964E-03  3.743E-06  2.589E+01
  5.964E-03  6.494E-03  2.662E-06  2.659E+01
  6.494E-03  7.071E-03  1.361E-05  7.123E+00
  7.071E-03  7.700E-03  6.575E-06  9.580E+00
  7.700E-03  8.384E-03  4.255E-06  3.356E+01
  8.384E-03  9.130E-03  2.902E-06  1.043E+01
  9.130E-03  9.941E-03  1.454E-07  4.295E+01
  9.941E-03  1.083E-02  0.000E+00  0.000E+00
  1.083E-02  1.179E-02  1.874E-07  2.988E+01
  1.179E-02  1.284E-02  0.000E+00  0.000E+00
  1.284E-02  1.398E-02  0.000E+00  0.000E+00
  1.398E-02  1.522E-02  2.826E-08  4.172E+01
  1.522E-02  1.657E-02  0.000E+00  0.000E+00
  1.657E-02  1.805E-02  0.000E+00  0.000E+00
  1.805E-02  1.965E-02  0.000E+00  0.000E+00
  1.965E-02  2.140E-02  0.000E+00  0.000E+00
  2.140E-02  2.330E-02  0.000E+00  0.000E+00
  2.330E-02  2.537E-02  0.000E+00  0.000E+00
  2.537E-02  2.763E-02  0.000E+00  0.000E+00
  2.763E-02  3.008E-02  0.000E+00  0.000E+00
  3.008E-02  3.276E-02  0.000E+00  0.000E+00
  3.276E-02  3.567E-02  0.000E+00  0.000E+00
  3.567E-02  3.884E-02  0.000E+00  0.000E+00
  3.884E-02  4.229E-02  0.000E+00  0.000E+00
  4.229E-02  4.605E-02  0.000E+00  0.000E+00
  4.605E-02  5.015E-02  0.000E+00  0.000E+00
  5.015E-02  5.461E-02  0.000E+00  0.000E+00
  5.461E-02  5.946E-02  0.000E+00  0.000E+00
  5.946E-02  6.475E-02  0.000E+00  0.000E+00
  6.475E-02  7.050E-02  0.000E+00  0.000E+00
  7.050E-02  7.677E-02  0.000E+00  0.000E+00
  7.677E-02  8.360E-02  0.000E+00  0.000E+00
  8.360E-02  9.103E-02  0.000E+00  0.000E+00
  9.103E-02  9.912E-02  0.000E+00  0.000E+00
  9.912E-02  1.079E-01  0.000E+00  0.000E+00
  1.079E-01  1.175E-01  0.000E+00  0.000E+00
  1.175E-01  1.280E-01  0.000E+00  0.000E+00
  1.280E-01  1.394E-01  0.000E+00  0.000E+00
  1.394E-01  1.517E-01  0.000E+00  0.000E+00
  1.517E-01  1.652E-01  0.000E+00  0.000E+00
  1.652E-01  1.799E-01  0.000E+00  0.000E+00
  1.799E-01  1.959E-01  0.000E+00  0.000E+00
  1.959E-01  2.133E-01  0.000E+00  0.000E+00
  2.133E-01  2.323E-01  0.000E+00  0.000E+00
  2.323E-01  2.530E-01  0.000E+00  0.000E+00
  2.530E-01  2.754E-01  0.000E+00  0.000E+00
  2.754E-01  2.999E-01  0.000E+00  0.000E+00
  2.999E-01  3.266E-01  0.000E+00  0.000E+00
  3.266E-01  3.556E-01  0.000E+00  0.000E+00
  3.556E-01  3.873E-01  0.000E+00  0.000E+00
  3.873E-01  4.217E-01  0.000E+00  0.000E+00
  4.217E-01  4.592E-01  0.000E+00  0.000E+00
  4.592E-01  5.000E-01  0.000E+00  0.000E+00


 # double differential distributions
 # number of solid angle intervals           1
 # Block n:            1     0.00000000      :   6.28318548    
  1.000E-04  1.089E-04  3.250E-03  2.789E+00  0.000E+00  6.283E+00
  1.089E-04  1.186E-04  3.327E-03  2.616E+00  0.000E+00  6.283E+00
  1.186E-04  1.291E-04  3.105E-03  2.736E+00  0.000E+00  6.283E+00
  1.291E-04  1.406E-04  2.869E-03  7.822E-01  0.000E+00  6.283E+00
  1.406E-04  1.531E-04  2.709E-03  2.359E+00  0.000E+00  6.283E+00
  1.531E-04  1.667E-04  2.743E-03  1.243E+00  0.000E+00  6.283E+00
  1.667E-04  1.815E-04  3.320E-03  1.873E+00  0.000E+00  6.283E+00
  1.815E-04  1.977E-04  2.942E-03  1.253E+00  0.000E+00  6.283E+00
  1.977E-04  2.152E-04  2.431E-03  3.167E+00  0.000E+00  6.283E+00
  2.152E-04  2.344E-04  2.100E-03  5.951E-01  0.000E+00  6.283E+00
  2.344E-04  2.552E-04  1.924E-03  3.209E+00  0.000E+00  6.283E+00
  2.552E-04  2.779E-04  1.766E-03  1.904E+00  0.000E+00  6.283E+00
  2.779E-04  3.026E-04  1.618E-03  1.769E+00  0.000E+00  6.283E+00
  3.026E-04  3.295E-04  1.492E-03  1.566E+00  0.000E+00  6.283E+00
  3.295E-04  3.588E-04  1.476E-03  1.444E+00  0.000E+00  6.283E+00
  3.588E-04  3.907E-04  1.470E-03  1.407E+00  0.000E+00  6.283E+00
  3.907E-04  4.254E-04  1.512E-03  5.246E-01  0.000E+00  6.283E+00
  4.254E-04  4.632E-04  1.560E-03  8.281E-01  0.000E+00  6.283E+00
  4.632E-04  5.044E-04  1.249E-02  1.137E-01  0.000E+00  6.283E+00
  5.044E-04  5.493E-04  1.678E-04  2.309E+00  0.000E+00  6.283E+00
  5.493E-04  5.981E-04  7.592E-05  3.144E+00  0.000E+00  6.283E+00
  5.981E-04  6.513E-04  5.855E-05  3.891E+00  0.000E+00  6.283E+00
  6.513E-04  7.092E-04  4.797E-05  2.047E+00  0.000E+00  6.283E+00
  7.092E-04  7.722E-04  6.822E-05  1.340E+01  0.000E+00  6.283E+00
  7.722E-04  8.409E-04  3.792E-05  7.611E+00  0.000E+00  6.283E+00
  8.409E-04  9.157E-04  3.968E-05  3.188E+00  0.000E+00  6.283E+00
  9.157E-04  9.971E-04  3.903E-05  4.493E+00  0.000E+00  6.283E+00
  9.971E-04  1.086E-03  3.305E-05  5.052E+00  0.000E+00  6.283E+00
  1.086E-03  1.182E-03  3.068E-05  4.006E+00  0.000E+00  6.283E+00
  1.182E-03  1.287E-03  3.286E-05  7.212E+00  0.000E+00  6.283E+00
  1.287E-03  1.402E-03  2.735E-05  7.179E+00  0.000E+00  6.283E+00
  1.402E-03  1.526E-03  2.909E-05  7.241E+00  0.000E+00  6.283E+00
  1.526E-03  1.662E-03  2.752E-05  4.340E+00  0.000E+00  6.283E+00
  1.662E-03  1.810E-03  2.696E-05  6.439E+00  0.000E+00  6.283E+00
  1.810E-03  1.971E-03  2.626E-05  4.106E+00  0.000E+00  6.283E+00
  1.971E-03  2.146E-03  5.307E-05  2.298E+00  0.000E+00  6.283E+00
  2.146E-03  2.337E-03  1.271E-04  1.299E+00  0.000E+00  6.283E+00
  2.337E-03  2.545E-03  1.860E-05  6.302E+00  0.000E+00  6.283E+00
  2.545E-03  2.771E-03  1.918E-05  1.308E+01  0.000E+00  6.283E+00
  2.771E-03  3.017E-03  2.501E-05  2.895E+00  0.000E+00  6.283E+00
  3.017E-03  3.285E-03  2.734E-05  7.532E+00  0.000E+00  6.283E+00
  3.285E-03  3.577E-03  1.914E-05  4.167E+00  0.000E+00  6.283E+00
  3.577E-03  3.895E-03  2.460E-05  6.086E+00  0.000E+00  6.283E+00
  3.895E-03  4.242E-03  1.709E-05  3.652E+00  0.000E+00  6.283E+00
  4.242E-03  4.619E-03  6.204E-04  7.929E-01  0.000E+00  6.283E+00
  4.619E-03  5.030E-03  2.465E-06  6.690E+00  0.000E+00  6.283E+00
  5.030E-03  5.477E-03  2.573E-06  3.679E+00  0.000E+00  6.283E+00
  5.477E-03  5.964E-03  5.957E-07  2.589E+01  0.000E+00  6.283E+00
  5.964E-03  6.494E-03  4.236E-07  2.659E+01  0.000E+00  6.283E+00
  6.494E-03  7.071E-03  2.167E-06  7.123E+00  0.000E+00  6.283E+00
  7.071E-03  7.700E-03  1.047E-06  9.580E+00  0.000E+00  6.283E+00
  7.700E-03  8.384E-03  6.772E-07  3.356E+01  0.000E+00  6.283E+00
  8.384E-03  9.130E-03  4.618E-07  1.043E+01  0.000E+00  6.283E+00
  9.130E-03  9.941E-03  2.314E-08  4.295E+01  0.000E+00  6.283E+00
  9.941E-03  1.083E-02  0.000E+00  0.000E+00  0.000E+00  6.283E+00
  1.083E-02  1.179E-02  2.983E-08  2.988E+01  0.000E+00  6.283E+00
  1.179E-02  1.284E-02  0.000E+00  0.000E+00  0.000E+00  6.283E+00
  1.284E-02  1.398E-02  0.000E+00  0.000E+00  0.000E+00  6.283E+00
  1.398E-02  1.522E-02  4.497E-09  4.172E+01  0.000E+00  6.283E+00
  1.522E-02  1.657E-02  0.000E+00  0.000E+00  0.000E+00  6.283E+00
  1.657E-02  1.805E-02  0.000E+00  0.000E+00  0.000E+00  6.283E+00
  1.805E-02  1.965E-02  0.000E+00  0.000E+00  0.000E+00  6.283E+00
  1.965E-02  2.140E-02  0.000E+00  0.000E+00  0.000E+00  6.283E+00
  2.140E-02  2.330E-02  0.000E+00  0.000E+00  0.000E+00  6.283E+00
  2.330E-02  2.537E-02  0.000E+00  0.000E+00  0.000E+00  6.283E+00
  2.537E-02  2.763E-02  0.000E+00  0.000E+00  0.000E+00  6.283E+00
  2.763E-02  3.008E-02  0.000E+00  0.000E+00  0.000E+00  6.283E+00
  3.008E-02  3.276E-02  0.000E+00  0.000E+00  0.000E+00  6.283E+00
  3.276E-02  3.567E-02  0.000E+00  0.000E+00  0.000E+00  6.283E+00
  3.567E-02  3.884E-02  0.000E+00  0.000E+00  0.000E+00  6.283E+00
  3.884E-02  4.229E-02  0.000E+00  0.000E+00  0.000E+00  6.283E+00
  4.229E-02  4.605E-02  0.000E+00  0.000E+00  0.000E+00  6.283E+00
  4.605E-02  5.015E-02  0.000E+00  0.000E+00  0.000E+00  6.283E+00
  5.015E-02  5.461E-02  0.000E+00  0.000E+00  0.000E+00  6.283E+00
  5.461E-02  5.946E-02  0.000E+00  0.000E+00  0.000E+00  6.283E+00
  5.946E-02  6.475E-02  0.000E+00  0.000E+00  0.000E+00  6.283E+00
  6.475E-02  7.050E-02  0.000E+00  0.000E+00  0.000E+00  6.283E+00
  7.050E-02  7.677E-02  0.000E+00  0.000E+00  0.000E+00  6.283E+00
  7.677E-02  8.360E-02  0.000E+00  0.000E+00  0.000E+00  6.283E+00
  8.360E-02  9.103E-02  0.000E+00  0.000E+00  0.000E+00  6.283E+00
  9.103E-02  9.912E-02  0.000E+00  0.000E+00  0.000E+00  6.283E+00
  9.912E-02  1.079E-01  0.000E+00  0.000E+00  0.000E+00  6.283E+00
  1.079E-01  1.175E-01  0.000E+00  0.000E+00  0.000E+00  6.283E+00
  1.175E-01  1.280E-01  0.000E+00  0.000E+00  0.000E+00  6.283E+00
  1.280E-01  1.394E-01  0.000E+00  0.000E+00  0.000E+00  6.283E+00
  1.394E-01  1.517E-01  0.000E+00  0.000E+00  0.000E+00  6.283E+00
  1.517E-01  1.652E-01  0.000E+00  0.000E+00  0.000E+00  6.283E+00
  1.652E-01  1.799E-01  0.000E+00  0.000E+00  0.000E+00  6.283E+00
  1.799E-01  1.959E-01  0.000E+00  0.000E+00  0.000E+00  6.283E+00
  1.959E-01  2.133E-01  0.000E+00  0.000E+00  0.000E+00  6.283E+00
  2.133E-01  2.323E-01  0.000E+00  0.000E+00  0.000E+00  6.283E+00
  2.323E-01  2.530E-01  0.000E+00  0.000E+00  0.000E+00  6.283E+00
  2.530E-01  2.754E-01  0.000E+00  0.000E+00  0.000E+00  6.283E+00
  2.754E-01  2.999E-01  0.000E+00  0.000E+00  0.000E+00  6.283E+00
  2.999E-01  3.266E-01  0.000E+00  0.000E+00  0.000E+00  6.283E+00
  3.266E-01  3.556E-01  0.000E+00  0.000E+00  0.000E+00  6.283E+00
  3.556E-01  3.873E-01  0.000E+00  0.000E+00  0.000E+00  6.283E+00
  3.873E-01  4.217E-01  0.000E+00  0.000E+00  0.000E+00  6.283E+00
  4.217E-01  4.592E-01  0.000E+00  0.000E+00  0.000E+00  6.283E+00
  4.592E-01  5.000E-01  0.000E+00  0.000E+00  0.000E+00  6.283E+00
  5.000E-01  5.000E-01  0.000E+00  0.000E+00  0.000E+00  6.283E+00

  1.000E-04  1.000E-04  0.000E+00  0.000E+00  6.283E+00  6.283E+00
  1.089E-04  1.089E-04  0.000E+00  0.000E+00  6.283E+00  6.283E+00
  1.186E-04  1.186E-04  0.000E+00  0.000E+00  6.283E+00  6.283E+00
  1.291E-04  1.291E-04  0.000E+00  0.000E+00  6.283E+00  6.283E+00
  1.406E-04  1.406E-04  0.000E+00  0.000E+00  6.283E+00  6.283E+00
  1.531E-04  1.531E-04  0.000E+00  0.000E+00  6.283E+00  6.283E+00
  1.667E-04  1.667E-04  0.000E+00  0.000E+00  6.283E+00  6.283E+00
  1.815E-04  1.815E-04  0.000E+00  0.000E+00  6.283E+00  6.283E+00
  1.977E-04  1.977E-04  0.000E+00  0.000E+00  6.283E+00  6.283E+00
  2.152E-04  2.152E-04  0.000E+00  0.000E+00  6.283E+00  6.283E+00
  2.344E-04  2.344E-04  0.000E+00  0.000E+00  6.283E+00  6.283E+00
  2.552E-04  2.552E-04  0.000E+00  0.000E+00  6.283E+00  6.283E+00
  2.779E-04  2.779E-04  0.000E+00  0.000E+00  6.283E+00  6.283E+00
  3.026E-04  3.026E-04  0.000E+00  0.000E+00  6.283E+00  6.283E+00
  3.295E-04  3.295E-04  0.000E+00  0.000E+00  6.283E+00  6.283E+00
  3.588E-04  3.588E-04  0.000E+00  0.000E+00  6.283E+00  6.283E+00
  3.907E-04  3.907E-04  0.000E+00  0.000E+00  6.283E+00  6.283E+00
  4.254E-04  4.254E-04  0.000E+00  0.000E+00  6.283E+00  6.283E+00
  4.632E-04  4.632E-04  0.000E+00  0.000E+00  6.283E+00  6.283E+00
  5.044E-04  5.044E-04  0.000E+00  0.000E+00  6.283E+00  6.283E+00
  5.493E-04  5.493E-04  0.000E+00  0.000E+00  6.283E+00  6.283E+00
  5.981E-04  5.981E-04  0.000E+00  0.000E+00  6.283E+00  6.283E+00
  6.513E-04  6.513E-04  0.000E+00  0.000E+00  6.283E+00  6.283E+00
  7.092E-04  7.092E-04  0.000E+00  0.000E+00  6.283E+00  6.283E+00
  7.722E-04  7.722E-04  0.000E+00  0.000E+00  6.283E+00  6.283E+00
  8.409E-04  8.409E-04  0.000E+00  0.000E+00  6.283E+00  6.283E+00
  9.157E-04  9.157E-04  0.000E+00  0.000E+00  6.283E+00  6.283E+00
  9.971E-04  9.971E-04  0.000E+00  0.000E+00  6.283E+00  6.283E+00
  1.086E-03  1.086E-03  0.000E+00  0.000E+00  6.283E+00  6.283E+00
  1.182E-03  1.182E-03  0.000E+00  0.000E+00  6.283E+00  6.283E+00
  1.287E-03  1.287E-03  0.000E+00  0.000E+00  6.283E+00  6.283E+00
  1.402E-03  1.402E-03  0.000E+00  0.000E+00  6.283E+00  6.283E+00
  1.526E-03  1.526E-03  0.000E+00  0.000E+00  6.283E+00  6.283E+00
  1.662E-03  1.662E-03  0.000E+00  0.000E+00  6.283E+00  6.283E+00
  1.810E-03  1.810E-03  0.000E+00  0.000E+00  6.283E+00  6.283E+00
  1.971E-03  1.971E-03  0.000E+00  0.000E+00  6.283E+00  6.283E+00
  2.146E-03  2.146E-03  0.000E+00  0.000E+00  6.283E+00  6.283E+00
  2.337E-03  2.337E-03  0.000E+00  0.000E+00  6.283E+00  6.283E+00
  2.545E-03  2.545E-03  0.000E+00  0.000E+00  6.283E+00  6.283E+00
  2.771E-03  2.771E-03  0.000E+00  0.000E+00  6.283E+00  6.283E+00
  3.017E-03  3.017E-03  0.000E+00  0.000E+00  6.283E+00  6.283E+00
  3.285E-03  3.285E-03  0.000E+00  0.000E+00  6.283E+00  6.283E+00
  3.577E-03  3.577E-03  0.000E+00  0.000E+00  6.283E+00  6.283E+00
  3.895E-03  3.895E-03  0.000E+00  0.000E+00  6.283E+00  6.283E+00
  4.242E-03  4.242E-03  0.000E+00  0.000E+00  6.283E+00  6.283E+00
  4.619E-03  4.619E-03  0.000E+00  0.000E+00  6.283E+00  6.283E+00
  5.030E-03  5.030E-03  0.000E+00  0.000E+00  6.283E+00  6.283E+00
  5.477E-03  5.477E-03  0.000E+00  0.000E+00  6.283E+00  6.283E+00
  5.964E-03  5.964E-03  0.000E+00  0.000E+00  6.283E+00  6.283E+00
  6.494E-03  6.494E-03  0.000E+00  0.000E+00  6.283E+00  6.283E+00
  7.071E-03  7.071E-03  0.000E+00  0.000E+00  6.283E+00  6.283E+00
  7.700E-03  7.700E-03  0.000E+00  0.000E+00  6.283E+00  6.283E+00
  8.384E-03  8.384E-03  0.000E+00  0.000E+00  6.283E+00  6.283E+00
  9.130E-03  9.130E-03  0.000E+00  0.000E+00  6.283E+00  6.283E+00
  9.941E-03  9.941E-03  0.000E+00  0.000E+00  6.283E+00  6.283E+00
  1.083E-02  1.083E-02  0.000E+00  0.000E+00  6.283E+00  6.283E+00
  1.179E-02  1.179E-02  0.000E+00  0.000E+00  6.283E+00  6.283E+00
  1.284E-02  1.284E-02  0.000E+00  0.000E+00  6.283E+00  6.283E+00
  1.398E-02  1.398E-02  0.000E+00  0.000E+00  6.283E+00  6.283E+00
  1.522E-02  1.522E-02  0.000E+00  0.000E+00  6.283E+00  6.283E+00
  1.657E-02  1.657E-02  0.000E+00  0.000E+00  6.283E+00  6.283E+00
  1.805E-02  1.805E-02  0.000E+00  0.000E+00  6.283E+00  6.283E+00
  1.965E-02  1.965E-02  0.000E+00  0.000E+00  6.283E+00  6.283E+00
  2.140E-02  2.140E-02  0.000E+00  0.000E+00  6.283E+00  6.283E+00
  2.330E-02  2.330E-02  0.000E+00  0.000E+00  6.283E+00  6.283E+00
  2.537E-02  2.537E-02  0.000E+00  0.000E+00  6.283E+00  6.283E+00
  2.763E-02  2.763E-02  0.000E+00  0.000E+00  6.283E+00  6.283E+00
  3.008E-02  3.008E-02  0.000E+00  0.000E+00  6.283E+00  6.283E+00
  3.276E-02  3.276E-02  0.000E+00  0.000E+00  6.283E+00  6.283E+00
  3.567E-02  3.567E-02  0.000E+00  0.000E+00  6.283E+00  6.283E+00
  3.884E-02  3.884E-02  0.000E+00  0.000E+00  6.283E+00  6.283E+00
  4.229E-02  4.229E-02  0.000E+00  0.000E+00  6.283E+00  6.283E+00
  4.605E-02  4.605E-02  0.000E+00  0.000E+00  6.283E+00  6.283E+00
  5.015E-02  5.015E-02  0.000E+00  0.000E+00  6.283E+00  6.283E+00
  5.461E-02  5.461E-02  0.000E+00  0.000E+00  6.283E+00  6.283E+00
  5.946E-02  5.946E-02  0.000E+00  0.000E+00  6.283E+00  6.283E+00
  6.475E-02  6.475E-02  0.000E+00  0.000E+00  6.283E+00  6.283E+00
  7.050E-02  7.050E-02  0.000E+00  0.000E+00  6.283E+00  6.283E+00
  7.677E-02  7.677E-02  0.000E+00  0.000E+00  6.283E+00  6.283E+00
  8.360E-02  8.360E-02  0.000E+00  0.000E+00  6.283E+00  6.283E+00
  9.103E-02  9.103E-02  0.000E+00  0.000E+00  6.283E+00  6.283E+00
  9.912E-02  9.912E-02  0.000E+00  0.000E+00  6.283E+00  6.283E+00
  1.079E-01  1.079E-01  0.000E+00  0.000E+00  6.283E+00  6.283E+00
  1.175E-01  1.175E-01  0.000E+00  0.000E+00  6.283E+00  6.283E+00
  1.280E-01  1.280E-01  0.000E+00  0.000E+00  6.283E+00  6.283E+00
  1.394E-01  1.394E-01  0.000E+00  0.000E+00  6.283E+00  6.283E+00
  1.517E-01  1.517E-01  0.000E+00  0.000E+00  6.283E+00  6.283E+00
  1.652E-01  1.652E-01  0.000E+00  0.000E+00  6.283E+00  6.283E+00
  1.799E-01  1.799E-01  0.000E+00  0.000E+00  6.283E+00  6.283E+00
  1.959E-01  1.959E-01  0.000E+00  0.000E+00  6.283E+00  6.283E+00
  2.133E-01  2.133E-01  0.000E+00  0.000E+00  6.283E+00  6.283E+00
  2.323E-01  2.323E-01  0.000E+00  0.000E+00  6.283E+00  6.283E+00
  2.530E-01  2.530E-01  0.000E+00  0.000E+00  6.283E+00  6.283E+00
  2.754E-01  2.754E-01  0.000E+00  0.000E+00  6.283E+00  6.283E+00
  2.999E-01  2.999E-01  0.000E+00  0.000E+00  6.283E+00  6.283E+00
  3.266E-01  3.266E-01  0.000E+00  0.000E+00  6.283E+00  6.283E+00
  3.556E-01  3.556E-01  0.000E+00  0.000E+00  6.283E+00  6.283E+00
  3.873E-01  3.873E-01  0.000E+00  0.000E+00  6.283E+00  6.283E+00
  4.217E-01  4.217E-01  0.000E+00  0.000E+00  6.283E+00  6.283E+00
  4.592E-01  4.592E-01  0.000E+00  0.000E+00  6.283E+00  6.283E+00
  5.000E-01  5.000E-01  0.000E+00  0.000E+00  6.283E+00  6.283E+00
