 # Detector n:            1   BdxPhot   (integrated over solid angle)
 # N. of energy intervals         100
  1.000E-04  1.089E-04  2.122E-02  1.211E+00
  1.089E-04  1.186E-04  2.071E-02  2.004E+00
  1.186E-04  1.291E-04  1.921E-02  2.121E+00
  1.291E-04  1.406E-04  1.784E-02  2.197E+00
  1.406E-04  1.531E-04  1.728E-02  8.648E-01
  1.531E-04  1.667E-04  1.710E-02  9.184E-01
  1.667E-04  1.815E-04  2.108E-02  1.319E+00
  1.815E-04  1.977E-04  1.809E-02  1.259E+00
  1.977E-04  2.152E-04  1.621E-02  5.415E+00
  2.152E-04  2.344E-04  1.329E-02  1.058E+00
  2.344E-04  2.552E-04  1.166E-02  6.078E-01
  2.552E-04  2.779E-04  1.081E-02  2.396E+00
  2.779E-04  3.026E-04  1.010E-02  1.807E+00
  3.026E-04  3.295E-04  9.451E-03  2.522E+00
  3.295E-04  3.588E-04  9.491E-03  1.680E+00
  3.588E-04  3.907E-04  9.308E-03  2.038E+00
  3.907E-04  4.254E-04  9.442E-03  1.282E+00
  4.254E-04  4.632E-04  9.764E-03  1.503E+00
  4.632E-04  5.044E-04  7.851E-02  2.842E-01
  5.044E-04  5.493E-04  1.031E-03  1.510E+00
  5.493E-04  5.981E-04  5.012E-04  3.207E+00
  5.981E-04  6.513E-04  3.709E-04  4.148E+00
  6.513E-04  7.092E-04  3.029E-04  5.441E+00
  7.092E-04  7.722E-04  3.640E-04  3.185E+00
  7.722E-04  8.409E-04  2.785E-04  4.760E+00
  8.409E-04  9.157E-04  2.543E-04  4.659E+00
  9.157E-04  9.971E-04  2.237E-04  3.100E+00
  9.971E-04  1.086E-03  2.420E-04  2.974E+00
  1.086E-03  1.182E-03  2.016E-04  1.831E+00
  1.182E-03  1.287E-03  2.375E-04  9.506E+00
  1.287E-03  1.402E-03  2.020E-04  6.607E+00
  1.402E-03  1.526E-03  1.701E-04  4.470E+00
  1.526E-03  1.662E-03  1.698E-04  5.701E+00
  1.662E-03  1.810E-03  1.709E-04  4.165E+00
  1.810E-03  1.971E-03  1.535E-04  3.845E+00
  1.971E-03  2.146E-03  3.333E-04  1.740E+00
  2.146E-03  2.337E-03  8.225E-04  1.967E+00
  2.337E-03  2.545E-03  1.180E-04  3.192E+00
  2.545E-03  2.771E-03  1.061E-04  3.445E+00
  2.771E-03  3.017E-03  1.583E-04  4.105E+00
  3.017E-03  3.285E-03  1.580E-04  3.845E+00
  3.285E-03  3.577E-03  1.128E-04  3.277E+00
  3.577E-03  3.895E-03  1.370E-04  6.053E+00
  3.895E-03  4.242E-03  1.119E-04  5.016E+00
  4.242E-03  4.619E-03  3.895E-03  9.709E-01
  4.619E-03  5.030E-03  1.838E-05  4.336E+00
  5.030E-03  5.477E-03  1.569E-05  8.176E+00
  5.477E-03  5.964E-03  3.400E-06  2.608E+01
  5.964E-03  6.494E-03  5.392E-06  1.104E+01
  6.494E-03  7.071E-03  1.625E-05  1.251E+01
  7.071E-03  7.700E-03  5.732E-06  1.050E+01
  7.700E-03  8.384E-03  2.547E-06  1.368E+01
  8.384E-03  9.130E-03  2.346E-06  2.140E+01
  9.130E-03  9.941E-03  1.783E-07  3.517E+01
  9.941E-03  1.083E-02  0.000E+00  0.000E+00
  1.083E-02  1.179E-02  4.478E-07  3.665E+01
  1.179E-02  1.284E-02  0.000E+00  0.000E+00
  1.284E-02  1.398E-02  0.000E+00  0.000E+00
  1.398E-02  1.522E-02  0.000E+00  0.000E+00
  1.522E-02  1.657E-02  0.000E+00  0.000E+00
  1.657E-02  1.805E-02  0.000E+00  0.000E+00
  1.805E-02  1.965E-02  0.000E+00  0.000E+00
  1.965E-02  2.140E-02  0.000E+00  0.000E+00
  2.140E-02  2.330E-02  0.000E+00  0.000E+00
  2.330E-02  2.537E-02  0.000E+00  0.000E+00
  2.537E-02  2.763E-02  0.000E+00  0.000E+00
  2.763E-02  3.008E-02  0.000E+00  0.000E+00
  3.008E-02  3.276E-02  0.000E+00  0.000E+00
  3.276E-02  3.567E-02  0.000E+00  0.000E+00
  3.567E-02  3.884E-02  0.000E+00  0.000E+00
  3.884E-02  4.229E-02  0.000E+00  0.000E+00
  4.229E-02  4.605E-02  0.000E+00  0.000E+00
  4.605E-02  5.015E-02  0.000E+00  0.000E+00
  5.015E-02  5.461E-02  0.000E+00  0.000E+00
  5.461E-02  5.946E-02  0.000E+00  0.000E+00
  5.946E-02  6.475E-02  0.000E+00  0.000E+00
  6.475E-02  7.050E-02  0.000E+00  0.000E+00
  7.050E-02  7.677E-02  0.000E+00  0.000E+00
  7.677E-02  8.360E-02  0.000E+00  0.000E+00
  8.360E-02  9.103E-02  0.000E+00  0.000E+00
  9.103E-02  9.912E-02  0.000E+00  0.000E+00
  9.912E-02  1.079E-01  0.000E+00  0.000E+00
  1.079E-01  1.175E-01  0.000E+00  0.000E+00
  1.175E-01  1.280E-01  0.000E+00  0.000E+00
  1.280E-01  1.394E-01  0.000E+00  0.000E+00
  1.394E-01  1.517E-01  0.000E+00  0.000E+00
  1.517E-01  1.652E-01  0.000E+00  0.000E+00
  1.652E-01  1.799E-01  0.000E+00  0.000E+00
  1.799E-01  1.959E-01  0.000E+00  0.000E+00
  1.959E-01  2.133E-01  0.000E+00  0.000E+00
  2.133E-01  2.323E-01  0.000E+00  0.000E+00
  2.323E-01  2.530E-01  0.000E+00  0.000E+00
  2.530E-01  2.754E-01  0.000E+00  0.000E+00
  2.754E-01  2.999E-01  0.000E+00  0.000E+00
  2.999E-01  3.266E-01  0.000E+00  0.000E+00
  3.266E-01  3.556E-01  0.000E+00  0.000E+00
  3.556E-01  3.873E-01  0.000E+00  0.000E+00
  3.873E-01  4.217E-01  0.000E+00  0.000E+00
  4.217E-01  4.592E-01  0.000E+00  0.000E+00
  4.592E-01  5.000E-01  0.000E+00  0.000E+00


 # double differential distributions
 # number of solid angle intervals           1
 # Block n:            1     0.00000000      :   6.28318548    
  1.000E-04  1.089E-04  3.378E-03  1.211E+00  0.000E+00  6.283E+00
  1.089E-04  1.186E-04  3.296E-03  2.004E+00  0.000E+00  6.283E+00
  1.186E-04  1.291E-04  3.058E-03  2.121E+00  0.000E+00  6.283E+00
  1.291E-04  1.406E-04  2.839E-03  2.197E+00  0.000E+00  6.283E+00
  1.406E-04  1.531E-04  2.750E-03  8.648E-01  0.000E+00  6.283E+00
  1.531E-04  1.667E-04  2.722E-03  9.184E-01  0.000E+00  6.283E+00
  1.667E-04  1.815E-04  3.355E-03  1.319E+00  0.000E+00  6.283E+00
  1.815E-04  1.977E-04  2.879E-03  1.259E+00  0.000E+00  6.283E+00
  1.977E-04  2.152E-04  2.580E-03  5.415E+00  0.000E+00  6.283E+00
  2.152E-04  2.344E-04  2.116E-03  1.058E+00  0.000E+00  6.283E+00
  2.344E-04  2.552E-04  1.855E-03  6.078E-01  0.000E+00  6.283E+00
  2.552E-04  2.779E-04  1.720E-03  2.396E+00  0.000E+00  6.283E+00
  2.779E-04  3.026E-04  1.608E-03  1.807E+00  0.000E+00  6.283E+00
  3.026E-04  3.295E-04  1.504E-03  2.522E+00  0.000E+00  6.283E+00
  3.295E-04  3.588E-04  1.511E-03  1.680E+00  0.000E+00  6.283E+00
  3.588E-04  3.907E-04  1.481E-03  2.038E+00  0.000E+00  6.283E+00
  3.907E-04  4.254E-04  1.503E-03  1.282E+00  0.000E+00  6.283E+00
  4.254E-04  4.632E-04  1.554E-03  1.503E+00  0.000E+00  6.283E+00
  4.632E-04  5.044E-04  1.249E-02  2.842E-01  0.000E+00  6.283E+00
  5.044E-04  5.493E-04  1.641E-04  1.510E+00  0.000E+00  6.283E+00
  5.493E-04  5.981E-04  7.977E-05  3.207E+00  0.000E+00  6.283E+00
  5.981E-04  6.513E-04  5.902E-05  4.148E+00  0.000E+00  6.283E+00
  6.513E-04  7.092E-04  4.821E-05  5.441E+00  0.000E+00  6.283E+00
  7.092E-04  7.722E-04  5.793E-05  3.185E+00  0.000E+00  6.283E+00
  7.722E-04  8.409E-04  4.433E-05  4.760E+00  0.000E+00  6.283E+00
  8.409E-04  9.157E-04  4.048E-05  4.659E+00  0.000E+00  6.283E+00
  9.157E-04  9.971E-04  3.560E-05  3.100E+00  0.000E+00  6.283E+00
  9.971E-04  1.086E-03  3.852E-05  2.974E+00  0.000E+00  6.283E+00
  1.086E-03  1.182E-03  3.208E-05  1.831E+00  0.000E+00  6.283E+00
  1.182E-03  1.287E-03  3.780E-05  9.506E+00  0.000E+00  6.283E+00
  1.287E-03  1.402E-03  3.214E-05  6.607E+00  0.000E+00  6.283E+00
  1.402E-03  1.526E-03  2.708E-05  4.470E+00  0.000E+00  6.283E+00
  1.526E-03  1.662E-03  2.703E-05  5.701E+00  0.000E+00  6.283E+00
  1.662E-03  1.810E-03  2.721E-05  4.165E+00  0.000E+00  6.283E+00
  1.810E-03  1.971E-03  2.443E-05  3.845E+00  0.000E+00  6.283E+00
  1.971E-03  2.146E-03  5.304E-05  1.740E+00  0.000E+00  6.283E+00
  2.146E-03  2.337E-03  1.309E-04  1.967E+00  0.000E+00  6.283E+00
  2.337E-03  2.545E-03  1.878E-05  3.192E+00  0.000E+00  6.283E+00
  2.545E-03  2.771E-03  1.688E-05  3.445E+00  0.000E+00  6.283E+00
  2.771E-03  3.017E-03  2.520E-05  4.105E+00  0.000E+00  6.283E+00
  3.017E-03  3.285E-03  2.514E-05  3.845E+00  0.000E+00  6.283E+00
  3.285E-03  3.577E-03  1.795E-05  3.277E+00  0.000E+00  6.283E+00
  3.577E-03  3.895E-03  2.180E-05  6.053E+00  0.000E+00  6.283E+00
  3.895E-03  4.242E-03  1.782E-05  5.016E+00  0.000E+00  6.283E+00
  4.242E-03  4.619E-03  6.199E-04  9.709E-01  0.000E+00  6.283E+00
  4.619E-03  5.030E-03  2.926E-06  4.336E+00  0.000E+00  6.283E+00
  5.030E-03  5.477E-03  2.497E-06  8.176E+00  0.000E+00  6.283E+00
  5.477E-03  5.964E-03  5.412E-07  2.608E+01  0.000E+00  6.283E+00
  5.964E-03  6.494E-03  8.582E-07  1.104E+01  0.000E+00  6.283E+00
  6.494E-03  7.071E-03  2.587E-06  1.251E+01  0.000E+00  6.283E+00
  7.071E-03  7.700E-03  9.123E-07  1.050E+01  0.000E+00  6.283E+00
  7.700E-03  8.384E-03  4.054E-07  1.368E+01  0.000E+00  6.283E+00
  8.384E-03  9.130E-03  3.735E-07  2.140E+01  0.000E+00  6.283E+00
  9.130E-03  9.941E-03  2.838E-08  3.517E+01  0.000E+00  6.283E+00
  9.941E-03  1.083E-02  0.000E+00  0.000E+00  0.000E+00  6.283E+00
  1.083E-02  1.179E-02  7.127E-08  3.665E+01  0.000E+00  6.283E+00
  1.179E-02  1.284E-02  0.000E+00  0.000E+00  0.000E+00  6.283E+00
  1.284E-02  1.398E-02  0.000E+00  0.000E+00  0.000E+00  6.283E+00
  1.398E-02  1.522E-02  0.000E+00  0.000E+00  0.000E+00  6.283E+00
  1.522E-02  1.657E-02  0.000E+00  0.000E+00  0.000E+00  6.283E+00
  1.657E-02  1.805E-02  0.000E+00  0.000E+00  0.000E+00  6.283E+00
  1.805E-02  1.965E-02  0.000E+00  0.000E+00  0.000E+00  6.283E+00
  1.965E-02  2.140E-02  0.000E+00  0.000E+00  0.000E+00  6.283E+00
  2.140E-02  2.330E-02  0.000E+00  0.000E+00  0.000E+00  6.283E+00
  2.330E-02  2.537E-02  0.000E+00  0.000E+00  0.000E+00  6.283E+00
  2.537E-02  2.763E-02  0.000E+00  0.000E+00  0.000E+00  6.283E+00
  2.763E-02  3.008E-02  0.000E+00  0.000E+00  0.000E+00  6.283E+00
  3.008E-02  3.276E-02  0.000E+00  0.000E+00  0.000E+00  6.283E+00
  3.276E-02  3.567E-02  0.000E+00  0.000E+00  0.000E+00  6.283E+00
  3.567E-02  3.884E-02  0.000E+00  0.000E+00  0.000E+00  6.283E+00
  3.884E-02  4.229E-02  0.000E+00  0.000E+00  0.000E+00  6.283E+00
  4.229E-02  4.605E-02  0.000E+00  0.000E+00  0.000E+00  6.283E+00
  4.605E-02  5.015E-02  0.000E+00  0.000E+00  0.000E+00  6.283E+00
  5.015E-02  5.461E-02  0.000E+00  0.000E+00  0.000E+00  6.283E+00
  5.461E-02  5.946E-02  0.000E+00  0.000E+00  0.000E+00  6.283E+00
  5.946E-02  6.475E-02  0.000E+00  0.000E+00  0.000E+00  6.283E+00
  6.475E-02  7.050E-02  0.000E+00  0.000E+00  0.000E+00  6.283E+00
  7.050E-02  7.677E-02  0.000E+00  0.000E+00  0.000E+00  6.283E+00
  7.677E-02  8.360E-02  0.000E+00  0.000E+00  0.000E+00  6.283E+00
  8.360E-02  9.103E-02  0.000E+00  0.000E+00  0.000E+00  6.283E+00
  9.103E-02  9.912E-02  0.000E+00  0.000E+00  0.000E+00  6.283E+00
  9.912E-02  1.079E-01  0.000E+00  0.000E+00  0.000E+00  6.283E+00
  1.079E-01  1.175E-01  0.000E+00  0.000E+00  0.000E+00  6.283E+00
  1.175E-01  1.280E-01  0.000E+00  0.000E+00  0.000E+00  6.283E+00
  1.280E-01  1.394E-01  0.000E+00  0.000E+00  0.000E+00  6.283E+00
  1.394E-01  1.517E-01  0.000E+00  0.000E+00  0.000E+00  6.283E+00
  1.517E-01  1.652E-01  0.000E+00  0.000E+00  0.000E+00  6.283E+00
  1.652E-01  1.799E-01  0.000E+00  0.000E+00  0.000E+00  6.283E+00
  1.799E-01  1.959E-01  0.000E+00  0.000E+00  0.000E+00  6.283E+00
  1.959E-01  2.133E-01  0.000E+00  0.000E+00  0.000E+00  6.283E+00
  2.133E-01  2.323E-01  0.000E+00  0.000E+00  0.000E+00  6.283E+00
  2.323E-01  2.530E-01  0.000E+00  0.000E+00  0.000E+00  6.283E+00
  2.530E-01  2.754E-01  0.000E+00  0.000E+00  0.000E+00  6.283E+00
  2.754E-01  2.999E-01  0.000E+00  0.000E+00  0.000E+00  6.283E+00
  2.999E-01  3.266E-01  0.000E+00  0.000E+00  0.000E+00  6.283E+00
  3.266E-01  3.556E-01  0.000E+00  0.000E+00  0.000E+00  6.283E+00
  3.556E-01  3.873E-01  0.000E+00  0.000E+00  0.000E+00  6.283E+00
  3.873E-01  4.217E-01  0.000E+00  0.000E+00  0.000E+00  6.283E+00
  4.217E-01  4.592E-01  0.000E+00  0.000E+00  0.000E+00  6.283E+00
  4.592E-01  5.000E-01  0.000E+00  0.000E+00  0.000E+00  6.283E+00
  5.000E-01  5.000E-01  0.000E+00  0.000E+00  0.000E+00  6.283E+00

  1.000E-04  1.000E-04  0.000E+00  0.000E+00  6.283E+00  6.283E+00
  1.089E-04  1.089E-04  0.000E+00  0.000E+00  6.283E+00  6.283E+00
  1.186E-04  1.186E-04  0.000E+00  0.000E+00  6.283E+00  6.283E+00
  1.291E-04  1.291E-04  0.000E+00  0.000E+00  6.283E+00  6.283E+00
  1.406E-04  1.406E-04  0.000E+00  0.000E+00  6.283E+00  6.283E+00
  1.531E-04  1.531E-04  0.000E+00  0.000E+00  6.283E+00  6.283E+00
  1.667E-04  1.667E-04  0.000E+00  0.000E+00  6.283E+00  6.283E+00
  1.815E-04  1.815E-04  0.000E+00  0.000E+00  6.283E+00  6.283E+00
  1.977E-04  1.977E-04  0.000E+00  0.000E+00  6.283E+00  6.283E+00
  2.152E-04  2.152E-04  0.000E+00  0.000E+00  6.283E+00  6.283E+00
  2.344E-04  2.344E-04  0.000E+00  0.000E+00  6.283E+00  6.283E+00
  2.552E-04  2.552E-04  0.000E+00  0.000E+00  6.283E+00  6.283E+00
  2.779E-04  2.779E-04  0.000E+00  0.000E+00  6.283E+00  6.283E+00
  3.026E-04  3.026E-04  0.000E+00  0.000E+00  6.283E+00  6.283E+00
  3.295E-04  3.295E-04  0.000E+00  0.000E+00  6.283E+00  6.283E+00
  3.588E-04  3.588E-04  0.000E+00  0.000E+00  6.283E+00  6.283E+00
  3.907E-04  3.907E-04  0.000E+00  0.000E+00  6.283E+00  6.283E+00
  4.254E-04  4.254E-04  0.000E+00  0.000E+00  6.283E+00  6.283E+00
  4.632E-04  4.632E-04  0.000E+00  0.000E+00  6.283E+00  6.283E+00
  5.044E-04  5.044E-04  0.000E+00  0.000E+00  6.283E+00  6.283E+00
  5.493E-04  5.493E-04  0.000E+00  0.000E+00  6.283E+00  6.283E+00
  5.981E-04  5.981E-04  0.000E+00  0.000E+00  6.283E+00  6.283E+00
  6.513E-04  6.513E-04  0.000E+00  0.000E+00  6.283E+00  6.283E+00
  7.092E-04  7.092E-04  0.000E+00  0.000E+00  6.283E+00  6.283E+00
  7.722E-04  7.722E-04  0.000E+00  0.000E+00  6.283E+00  6.283E+00
  8.409E-04  8.409E-04  0.000E+00  0.000E+00  6.283E+00  6.283E+00
  9.157E-04  9.157E-04  0.000E+00  0.000E+00  6.283E+00  6.283E+00
  9.971E-04  9.971E-04  0.000E+00  0.000E+00  6.283E+00  6.283E+00
  1.086E-03  1.086E-03  0.000E+00  0.000E+00  6.283E+00  6.283E+00
  1.182E-03  1.182E-03  0.000E+00  0.000E+00  6.283E+00  6.283E+00
  1.287E-03  1.287E-03  0.000E+00  0.000E+00  6.283E+00  6.283E+00
  1.402E-03  1.402E-03  0.000E+00  0.000E+00  6.283E+00  6.283E+00
  1.526E-03  1.526E-03  0.000E+00  0.000E+00  6.283E+00  6.283E+00
  1.662E-03  1.662E-03  0.000E+00  0.000E+00  6.283E+00  6.283E+00
  1.810E-03  1.810E-03  0.000E+00  0.000E+00  6.283E+00  6.283E+00
  1.971E-03  1.971E-03  0.000E+00  0.000E+00  6.283E+00  6.283E+00
  2.146E-03  2.146E-03  0.000E+00  0.000E+00  6.283E+00  6.283E+00
  2.337E-03  2.337E-03  0.000E+00  0.000E+00  6.283E+00  6.283E+00
  2.545E-03  2.545E-03  0.000E+00  0.000E+00  6.283E+00  6.283E+00
  2.771E-03  2.771E-03  0.000E+00  0.000E+00  6.283E+00  6.283E+00
  3.017E-03  3.017E-03  0.000E+00  0.000E+00  6.283E+00  6.283E+00
  3.285E-03  3.285E-03  0.000E+00  0.000E+00  6.283E+00  6.283E+00
  3.577E-03  3.577E-03  0.000E+00  0.000E+00  6.283E+00  6.283E+00
  3.895E-03  3.895E-03  0.000E+00  0.000E+00  6.283E+00  6.283E+00
  4.242E-03  4.242E-03  0.000E+00  0.000E+00  6.283E+00  6.283E+00
  4.619E-03  4.619E-03  0.000E+00  0.000E+00  6.283E+00  6.283E+00
  5.030E-03  5.030E-03  0.000E+00  0.000E+00  6.283E+00  6.283E+00
  5.477E-03  5.477E-03  0.000E+00  0.000E+00  6.283E+00  6.283E+00
  5.964E-03  5.964E-03  0.000E+00  0.000E+00  6.283E+00  6.283E+00
  6.494E-03  6.494E-03  0.000E+00  0.000E+00  6.283E+00  6.283E+00
  7.071E-03  7.071E-03  0.000E+00  0.000E+00  6.283E+00  6.283E+00
  7.700E-03  7.700E-03  0.000E+00  0.000E+00  6.283E+00  6.283E+00
  8.384E-03  8.384E-03  0.000E+00  0.000E+00  6.283E+00  6.283E+00
  9.130E-03  9.130E-03  0.000E+00  0.000E+00  6.283E+00  6.283E+00
  9.941E-03  9.941E-03  0.000E+00  0.000E+00  6.283E+00  6.283E+00
  1.083E-02  1.083E-02  0.000E+00  0.000E+00  6.283E+00  6.283E+00
  1.179E-02  1.179E-02  0.000E+00  0.000E+00  6.283E+00  6.283E+00
  1.284E-02  1.284E-02  0.000E+00  0.000E+00  6.283E+00  6.283E+00
  1.398E-02  1.398E-02  0.000E+00  0.000E+00  6.283E+00  6.283E+00
  1.522E-02  1.522E-02  0.000E+00  0.000E+00  6.283E+00  6.283E+00
  1.657E-02  1.657E-02  0.000E+00  0.000E+00  6.283E+00  6.283E+00
  1.805E-02  1.805E-02  0.000E+00  0.000E+00  6.283E+00  6.283E+00
  1.965E-02  1.965E-02  0.000E+00  0.000E+00  6.283E+00  6.283E+00
  2.140E-02  2.140E-02  0.000E+00  0.000E+00  6.283E+00  6.283E+00
  2.330E-02  2.330E-02  0.000E+00  0.000E+00  6.283E+00  6.283E+00
  2.537E-02  2.537E-02  0.000E+00  0.000E+00  6.283E+00  6.283E+00
  2.763E-02  2.763E-02  0.000E+00  0.000E+00  6.283E+00  6.283E+00
  3.008E-02  3.008E-02  0.000E+00  0.000E+00  6.283E+00  6.283E+00
  3.276E-02  3.276E-02  0.000E+00  0.000E+00  6.283E+00  6.283E+00
  3.567E-02  3.567E-02  0.000E+00  0.000E+00  6.283E+00  6.283E+00
  3.884E-02  3.884E-02  0.000E+00  0.000E+00  6.283E+00  6.283E+00
  4.229E-02  4.229E-02  0.000E+00  0.000E+00  6.283E+00  6.283E+00
  4.605E-02  4.605E-02  0.000E+00  0.000E+00  6.283E+00  6.283E+00
  5.015E-02  5.015E-02  0.000E+00  0.000E+00  6.283E+00  6.283E+00
  5.461E-02  5.461E-02  0.000E+00  0.000E+00  6.283E+00  6.283E+00
  5.946E-02  5.946E-02  0.000E+00  0.000E+00  6.283E+00  6.283E+00
  6.475E-02  6.475E-02  0.000E+00  0.000E+00  6.283E+00  6.283E+00
  7.050E-02  7.050E-02  0.000E+00  0.000E+00  6.283E+00  6.283E+00
  7.677E-02  7.677E-02  0.000E+00  0.000E+00  6.283E+00  6.283E+00
  8.360E-02  8.360E-02  0.000E+00  0.000E+00  6.283E+00  6.283E+00
  9.103E-02  9.103E-02  0.000E+00  0.000E+00  6.283E+00  6.283E+00
  9.912E-02  9.912E-02  0.000E+00  0.000E+00  6.283E+00  6.283E+00
  1.079E-01  1.079E-01  0.000E+00  0.000E+00  6.283E+00  6.283E+00
  1.175E-01  1.175E-01  0.000E+00  0.000E+00  6.283E+00  6.283E+00
  1.280E-01  1.280E-01  0.000E+00  0.000E+00  6.283E+00  6.283E+00
  1.394E-01  1.394E-01  0.000E+00  0.000E+00  6.283E+00  6.283E+00
  1.517E-01  1.517E-01  0.000E+00  0.000E+00  6.283E+00  6.283E+00
  1.652E-01  1.652E-01  0.000E+00  0.000E+00  6.283E+00  6.283E+00
  1.799E-01  1.799E-01  0.000E+00  0.000E+00  6.283E+00  6.283E+00
  1.959E-01  1.959E-01  0.000E+00  0.000E+00  6.283E+00  6.283E+00
  2.133E-01  2.133E-01  0.000E+00  0.000E+00  6.283E+00  6.283E+00
  2.323E-01  2.323E-01  0.000E+00  0.000E+00  6.283E+00  6.283E+00
  2.530E-01  2.530E-01  0.000E+00  0.000E+00  6.283E+00  6.283E+00
  2.754E-01  2.754E-01  0.000E+00  0.000E+00  6.283E+00  6.283E+00
  2.999E-01  2.999E-01  0.000E+00  0.000E+00  6.283E+00  6.283E+00
  3.266E-01  3.266E-01  0.000E+00  0.000E+00  6.283E+00  6.283E+00
  3.556E-01  3.556E-01  0.000E+00  0.000E+00  6.283E+00  6.283E+00
  3.873E-01  3.873E-01  0.000E+00  0.000E+00  6.283E+00  6.283E+00
  4.217E-01  4.217E-01  0.000E+00  0.000E+00  6.283E+00  6.283E+00
  4.592E-01  4.592E-01  0.000E+00  0.000E+00  6.283E+00  6.283E+00
  5.000E-01  5.000E-01  0.000E+00  0.000E+00  6.283E+00  6.283E+00
