 # Detector n:            1   BdxNeut   (integrated over solid angle)
 # N. of energy intervals         100
  1.000E-09  1.222E-09  1.844E-01  6.261E+01
  1.222E-09  1.493E-09  8.945E-02  6.137E+01
  1.493E-09  1.824E-09  0.000E+00  0.000E+00
  1.824E-09  2.228E-09  0.000E+00  0.000E+00
  2.228E-09  2.722E-09  4.600E-02  9.900E+01
  2.722E-09  3.326E-09  1.830E-02  9.900E+01
  3.326E-09  4.064E-09  4.034E-02  9.900E+01
  4.064E-09  4.965E-09  4.271E-02  6.533E+01
  4.965E-09  6.066E-09  4.442E-02  4.577E+01
  6.066E-09  7.411E-09  1.065E-02  9.900E+01
  7.411E-09  9.055E-09  8.825E-03  9.900E+01
  9.055E-09  1.106E-08  6.217E-03  9.900E+01
  1.106E-08  1.352E-08  1.124E-02  6.430E+01
  1.352E-08  1.651E-08  3.630E-03  9.900E+01
  1.651E-08  2.018E-08  2.009E-02  5.227E+01
  2.018E-08  2.465E-08  2.638E-03  9.900E+01
  2.465E-08  3.012E-08  4.662E-03  6.152E+01
  3.012E-08  3.680E-08  4.466E-03  9.900E+01
  3.680E-08  4.496E-08  1.351E-03  9.900E+01
  4.496E-08  5.493E-08  2.605E-03  6.384E+01
  5.493E-08  6.711E-08  8.302E-04  9.900E+01
  6.711E-08  8.199E-08  6.920E-04  9.900E+01
  8.199E-08  1.002E-07  1.458E-03  6.267E+01
  1.002E-07  1.224E-07  0.000E+00  0.000E+00
  1.224E-07  1.495E-07  0.000E+00  0.000E+00
  1.495E-07  1.827E-07  1.128E-03  9.900E+01
  1.827E-07  2.232E-07  7.977E-04  4.096E+01
  2.232E-07  2.727E-07  0.000E+00  0.000E+00
  2.727E-07  3.332E-07  0.000E+00  0.000E+00
  3.332E-07  4.071E-07  0.000E+00  0.000E+00
  4.071E-07  4.974E-07  0.000E+00  0.000E+00
  4.974E-07  6.077E-07  9.696E-05  9.900E+01
  6.077E-07  7.424E-07  0.000E+00  0.000E+00
  7.424E-07  9.071E-07  0.000E+00  0.000E+00
  9.071E-07  1.108E-06  1.175E-04  6.166E+01
  1.108E-06  1.354E-06  0.000E+00  0.000E+00
  1.354E-06  1.654E-06  3.351E-05  9.900E+01
  1.654E-06  2.021E-06  0.000E+00  0.000E+00
  2.021E-06  2.469E-06  0.000E+00  0.000E+00
  2.469E-06  3.017E-06  0.000E+00  0.000E+00
  3.017E-06  3.686E-06  1.685E-05  9.900E+01
  3.686E-06  4.504E-06  1.518E-05  9.900E+01
  4.504E-06  5.502E-06  1.096E-05  9.900E+01
  5.502E-06  6.723E-06  0.000E+00  0.000E+00
  6.723E-06  8.214E-06  0.000E+00  0.000E+00
  8.214E-06  1.004E-05  0.000E+00  0.000E+00
  1.004E-05  1.226E-05  0.000E+00  0.000E+00
  1.226E-05  1.498E-05  4.277E-06  9.900E+01
  1.498E-05  1.830E-05  0.000E+00  0.000E+00
  1.830E-05  2.236E-05  0.000E+00  0.000E+00
  2.236E-05  2.732E-05  0.000E+00  0.000E+00
  2.732E-05  3.338E-05  0.000E+00  0.000E+00
  3.338E-05  4.078E-05  0.000E+00  0.000E+00
  4.078E-05  4.982E-05  0.000E+00  0.000E+00
  4.982E-05  6.087E-05  1.477E-06  9.900E+01
  6.087E-05  7.437E-05  0.000E+00  0.000E+00
  7.437E-05  9.087E-05  0.000E+00  0.000E+00
  9.087E-05  1.110E-04  0.000E+00  0.000E+00
  1.110E-04  1.356E-04  0.000E+00  0.000E+00
  1.356E-04  1.657E-04  0.000E+00  0.000E+00
  1.657E-04  2.025E-04  0.000E+00  0.000E+00
  2.025E-04  2.474E-04  0.000E+00  0.000E+00
  2.474E-04  3.022E-04  0.000E+00  0.000E+00
  3.022E-04  3.693E-04  0.000E+00  0.000E+00
  3.693E-04  4.512E-04  0.000E+00  0.000E+00
  4.512E-04  5.512E-04  0.000E+00  0.000E+00
  5.512E-04  6.735E-04  0.000E+00  0.000E+00
  6.735E-04  8.228E-04  0.000E+00  0.000E+00
  8.228E-04  1.005E-03  0.000E+00  0.000E+00
  1.005E-03  1.228E-03  0.000E+00  0.000E+00
  1.228E-03  1.501E-03  0.000E+00  0.000E+00
  1.501E-03  1.833E-03  0.000E+00  0.000E+00
  1.833E-03  2.240E-03  0.000E+00  0.000E+00
  2.240E-03  2.737E-03  0.000E+00  0.000E+00
  2.737E-03  3.344E-03  0.000E+00  0.000E+00
  3.344E-03  4.085E-03  0.000E+00  0.000E+00
  4.085E-03  4.991E-03  0.000E+00  0.000E+00
  4.991E-03  6.098E-03  0.000E+00  0.000E+00
  6.098E-03  7.450E-03  0.000E+00  0.000E+00
  7.450E-03  9.103E-03  0.000E+00  0.000E+00
  9.103E-03  1.112E-02  0.000E+00  0.000E+00
  1.112E-02  1.359E-02  0.000E+00  0.000E+00
  1.359E-02  1.660E-02  0.000E+00  0.000E+00
  1.660E-02  2.028E-02  0.000E+00  0.000E+00
  2.028E-02  2.478E-02  0.000E+00  0.000E+00
  2.478E-02  3.028E-02  0.000E+00  0.000E+00
  3.028E-02  3.699E-02  0.000E+00  0.000E+00
  3.699E-02  4.520E-02  0.000E+00  0.000E+00
  4.520E-02  5.522E-02  0.000E+00  0.000E+00
  5.522E-02  6.746E-02  0.000E+00  0.000E+00
  6.746E-02  8.243E-02  0.000E+00  0.000E+00
  8.243E-02  1.007E-01  0.000E+00  0.000E+00
  1.007E-01  1.230E-01  0.000E+00  0.000E+00
  1.230E-01  1.503E-01  0.000E+00  0.000E+00
  1.503E-01  1.837E-01  0.000E+00  0.000E+00
  1.837E-01  2.244E-01  0.000E+00  0.000E+00
  2.244E-01  2.742E-01  0.000E+00  0.000E+00
  2.742E-01  3.350E-01  0.000E+00  0.000E+00
  3.350E-01  4.092E-01  0.000E+00  0.000E+00
  4.092E-01  5.000E-01  0.000E+00  0.000E+00


 # double differential distributions
 # number of solid angle intervals           1
 # Block n:            1     0.00000000      :   6.28318548    
  1.000E-09  1.222E-09  2.935E-02  6.261E+01  0.000E+00  6.283E+00
  1.222E-09  1.493E-09  1.424E-02  6.137E+01  0.000E+00  6.283E+00
  1.493E-09  1.824E-09  0.000E+00  0.000E+00  0.000E+00  6.283E+00
  1.824E-09  2.228E-09  0.000E+00  0.000E+00  0.000E+00  6.283E+00
  2.228E-09  2.722E-09  7.320E-03  9.900E+01  0.000E+00  6.283E+00
  2.722E-09  3.326E-09  2.912E-03  9.900E+01  0.000E+00  6.283E+00
  3.326E-09  4.064E-09  6.420E-03  9.900E+01  0.000E+00  6.283E+00
  4.064E-09  4.965E-09  6.797E-03  6.533E+01  0.000E+00  6.283E+00
  4.965E-09  6.066E-09  7.069E-03  4.577E+01  0.000E+00  6.283E+00
  6.066E-09  7.411E-09  1.695E-03  9.900E+01  0.000E+00  6.283E+00
  7.411E-09  9.055E-09  1.405E-03  9.900E+01  0.000E+00  6.283E+00
  9.055E-09  1.106E-08  9.895E-04  9.900E+01  0.000E+00  6.283E+00
  1.106E-08  1.352E-08  1.789E-03  6.430E+01  0.000E+00  6.283E+00
  1.352E-08  1.651E-08  5.777E-04  9.900E+01  0.000E+00  6.283E+00
  1.651E-08  2.018E-08  3.198E-03  5.227E+01  0.000E+00  6.283E+00
  2.018E-08  2.465E-08  4.198E-04  9.900E+01  0.000E+00  6.283E+00
  2.465E-08  3.012E-08  7.419E-04  6.152E+01  0.000E+00  6.283E+00
  3.012E-08  3.680E-08  7.109E-04  9.900E+01  0.000E+00  6.283E+00
  3.680E-08  4.496E-08  2.151E-04  9.900E+01  0.000E+00  6.283E+00
  4.496E-08  5.493E-08  4.146E-04  6.384E+01  0.000E+00  6.283E+00
  5.493E-08  6.711E-08  1.321E-04  9.900E+01  0.000E+00  6.283E+00
  6.711E-08  8.199E-08  1.101E-04  9.900E+01  0.000E+00  6.283E+00
  8.199E-08  1.002E-07  2.320E-04  6.267E+01  0.000E+00  6.283E+00
  1.002E-07  1.224E-07  0.000E+00  0.000E+00  0.000E+00  6.283E+00
  1.224E-07  1.495E-07  0.000E+00  0.000E+00  0.000E+00  6.283E+00
  1.495E-07  1.827E-07  1.796E-04  9.900E+01  0.000E+00  6.283E+00
  1.827E-07  2.232E-07  1.270E-04  4.096E+01  0.000E+00  6.283E+00
  2.232E-07  2.727E-07  0.000E+00  0.000E+00  0.000E+00  6.283E+00
  2.727E-07  3.332E-07  0.000E+00  0.000E+00  0.000E+00  6.283E+00
  3.332E-07  4.071E-07  0.000E+00  0.000E+00  0.000E+00  6.283E+00
  4.071E-07  4.974E-07  0.000E+00  0.000E+00  0.000E+00  6.283E+00
  4.974E-07  6.077E-07  1.543E-05  9.900E+01  0.000E+00  6.283E+00
  6.077E-07  7.424E-07  0.000E+00  0.000E+00  0.000E+00  6.283E+00
  7.424E-07  9.071E-07  0.000E+00  0.000E+00  0.000E+00  6.283E+00
  9.071E-07  1.108E-06  1.870E-05  6.166E+01  0.000E+00  6.283E+00
  1.108E-06  1.354E-06  0.000E+00  0.000E+00  0.000E+00  6.283E+00
  1.354E-06  1.654E-06  5.334E-06  9.900E+01  0.000E+00  6.283E+00
  1.654E-06  2.021E-06  0.000E+00  0.000E+00  0.000E+00  6.283E+00
  2.021E-06  2.469E-06  0.000E+00  0.000E+00  0.000E+00  6.283E+00
  2.469E-06  3.017E-06  0.000E+00  0.000E+00  0.000E+00  6.283E+00
  3.017E-06  3.686E-06  2.682E-06  9.900E+01  0.000E+00  6.283E+00
  3.686E-06  4.504E-06  2.415E-06  9.900E+01  0.000E+00  6.283E+00
  4.504E-06  5.502E-06  1.745E-06  9.900E+01  0.000E+00  6.283E+00
  5.502E-06  6.723E-06  0.000E+00  0.000E+00  0.000E+00  6.283E+00
  6.723E-06  8.214E-06  0.000E+00  0.000E+00  0.000E+00  6.283E+00
  8.214E-06  1.004E-05  0.000E+00  0.000E+00  0.000E+00  6.283E+00
  1.004E-05  1.226E-05  0.000E+00  0.000E+00  0.000E+00  6.283E+00
  1.226E-05  1.498E-05  6.807E-07  9.900E+01  0.000E+00  6.283E+00
  1.498E-05  1.830E-05  0.000E+00  0.000E+00  0.000E+00  6.283E+00
  1.830E-05  2.236E-05  0.000E+00  0.000E+00  0.000E+00  6.283E+00
  2.236E-05  2.732E-05  0.000E+00  0.000E+00  0.000E+00  6.283E+00
  2.732E-05  3.338E-05  0.000E+00  0.000E+00  0.000E+00  6.283E+00
  3.338E-05  4.078E-05  0.000E+00  0.000E+00  0.000E+00  6.283E+00
  4.078E-05  4.982E-05  0.000E+00  0.000E+00  0.000E+00  6.283E+00
  4.982E-05  6.087E-05  2.350E-07  9.900E+01  0.000E+00  6.283E+00
  6.087E-05  7.437E-05  0.000E+00  0.000E+00  0.000E+00  6.283E+00
  7.437E-05  9.087E-05  0.000E+00  0.000E+00  0.000E+00  6.283E+00
  9.087E-05  1.110E-04  0.000E+00  0.000E+00  0.000E+00  6.283E+00
  1.110E-04  1.356E-04  0.000E+00  0.000E+00  0.000E+00  6.283E+00
  1.356E-04  1.657E-04  0.000E+00  0.000E+00  0.000E+00  6.283E+00
  1.657E-04  2.025E-04  0.000E+00  0.000E+00  0.000E+00  6.283E+00
  2.025E-04  2.474E-04  0.000E+00  0.000E+00  0.000E+00  6.283E+00
  2.474E-04  3.022E-04  0.000E+00  0.000E+00  0.000E+00  6.283E+00
  3.022E-04  3.693E-04  0.000E+00  0.000E+00  0.000E+00  6.283E+00
  3.693E-04  4.512E-04  0.000E+00  0.000E+00  0.000E+00  6.283E+00
  4.512E-04  5.512E-04  0.000E+00  0.000E+00  0.000E+00  6.283E+00
  5.512E-04  6.735E-04  0.000E+00  0.000E+00  0.000E+00  6.283E+00
  6.735E-04  8.228E-04  0.000E+00  0.000E+00  0.000E+00  6.283E+00
  8.228E-04  1.005E-03  0.000E+00  0.000E+00  0.000E+00  6.283E+00
  1.005E-03  1.228E-03  0.000E+00  0.000E+00  0.000E+00  6.283E+00
  1.228E-03  1.501E-03  0.000E+00  0.000E+00  0.000E+00  6.283E+00
  1.501E-03  1.833E-03  0.000E+00  0.000E+00  0.000E+00  6.283E+00
  1.833E-03  2.240E-03  0.000E+00  0.000E+00  0.000E+00  6.283E+00
  2.240E-03  2.737E-03  0.000E+00  0.000E+00  0.000E+00  6.283E+00
  2.737E-03  3.344E-03  0.000E+00  0.000E+00  0.000E+00  6.283E+00
  3.344E-03  4.085E-03  0.000E+00  0.000E+00  0.000E+00  6.283E+00
  4.085E-03  4.991E-03  0.000E+00  0.000E+00  0.000E+00  6.283E+00
  4.991E-03  6.098E-03  0.000E+00  0.000E+00  0.000E+00  6.283E+00
  6.098E-03  7.450E-03  0.000E+00  0.000E+00  0.000E+00  6.283E+00
  7.450E-03  9.103E-03  0.000E+00  0.000E+00  0.000E+00  6.283E+00
  9.103E-03  1.112E-02  0.000E+00  0.000E+00  0.000E+00  6.283E+00
  1.112E-02  1.359E-02  0.000E+00  0.000E+00  0.000E+00  6.283E+00
  1.359E-02  1.660E-02  0.000E+00  0.000E+00  0.000E+00  6.283E+00
  1.660E-02  2.028E-02  0.000E+00  0.000E+00  0.000E+00  6.283E+00
  2.028E-02  2.478E-02  0.000E+00  0.000E+00  0.000E+00  6.283E+00
  2.478E-02  3.028E-02  0.000E+00  0.000E+00  0.000E+00  6.283E+00
  3.028E-02  3.699E-02  0.000E+00  0.000E+00  0.000E+00  6.283E+00
  3.699E-02  4.520E-02  0.000E+00  0.000E+00  0.000E+00  6.283E+00
  4.520E-02  5.522E-02  0.000E+00  0.000E+00  0.000E+00  6.283E+00
  5.522E-02  6.746E-02  0.000E+00  0.000E+00  0.000E+00  6.283E+00
  6.746E-02  8.243E-02  0.000E+00  0.000E+00  0.000E+00  6.283E+00
  8.243E-02  1.007E-01  0.000E+00  0.000E+00  0.000E+00  6.283E+00
  1.007E-01  1.230E-01  0.000E+00  0.000E+00  0.000E+00  6.283E+00
  1.230E-01  1.503E-01  0.000E+00  0.000E+00  0.000E+00  6.283E+00
  1.503E-01  1.837E-01  0.000E+00  0.000E+00  0.000E+00  6.283E+00
  1.837E-01  2.244E-01  0.000E+00  0.000E+00  0.000E+00  6.283E+00
  2.244E-01  2.742E-01  0.000E+00  0.000E+00  0.000E+00  6.283E+00
  2.742E-01  3.350E-01  0.000E+00  0.000E+00  0.000E+00  6.283E+00
  3.350E-01  4.092E-01  0.000E+00  0.000E+00  0.000E+00  6.283E+00
  4.092E-01  5.000E-01  0.000E+00  0.000E+00  0.000E+00  6.283E+00
  5.000E-01  5.000E-01  0.000E+00  0.000E+00  0.000E+00  6.283E+00

  1.000E-09  1.000E-09  0.000E+00  0.000E+00  6.283E+00  6.283E+00
  1.222E-09  1.222E-09  0.000E+00  0.000E+00  6.283E+00  6.283E+00
  1.493E-09  1.493E-09  0.000E+00  0.000E+00  6.283E+00  6.283E+00
  1.824E-09  1.824E-09  0.000E+00  0.000E+00  6.283E+00  6.283E+00
  2.228E-09  2.228E-09  0.000E+00  0.000E+00  6.283E+00  6.283E+00
  2.722E-09  2.722E-09  0.000E+00  0.000E+00  6.283E+00  6.283E+00
  3.326E-09  3.326E-09  0.000E+00  0.000E+00  6.283E+00  6.283E+00
  4.064E-09  4.064E-09  0.000E+00  0.000E+00  6.283E+00  6.283E+00
  4.965E-09  4.965E-09  0.000E+00  0.000E+00  6.283E+00  6.283E+00
  6.066E-09  6.066E-09  0.000E+00  0.000E+00  6.283E+00  6.283E+00
  7.411E-09  7.411E-09  0.000E+00  0.000E+00  6.283E+00  6.283E+00
  9.055E-09  9.055E-09  0.000E+00  0.000E+00  6.283E+00  6.283E+00
  1.106E-08  1.106E-08  0.000E+00  0.000E+00  6.283E+00  6.283E+00
  1.352E-08  1.352E-08  0.000E+00  0.000E+00  6.283E+00  6.283E+00
  1.651E-08  1.651E-08  0.000E+00  0.000E+00  6.283E+00  6.283E+00
  2.018E-08  2.018E-08  0.000E+00  0.000E+00  6.283E+00  6.283E+00
  2.465E-08  2.465E-08  0.000E+00  0.000E+00  6.283E+00  6.283E+00
  3.012E-08  3.012E-08  0.000E+00  0.000E+00  6.283E+00  6.283E+00
  3.680E-08  3.680E-08  0.000E+00  0.000E+00  6.283E+00  6.283E+00
  4.496E-08  4.496E-08  0.000E+00  0.000E+00  6.283E+00  6.283E+00
  5.493E-08  5.493E-08  0.000E+00  0.000E+00  6.283E+00  6.283E+00
  6.711E-08  6.711E-08  0.000E+00  0.000E+00  6.283E+00  6.283E+00
  8.199E-08  8.199E-08  0.000E+00  0.000E+00  6.283E+00  6.283E+00
  1.002E-07  1.002E-07  0.000E+00  0.000E+00  6.283E+00  6.283E+00
  1.224E-07  1.224E-07  0.000E+00  0.000E+00  6.283E+00  6.283E+00
  1.495E-07  1.495E-07  0.000E+00  0.000E+00  6.283E+00  6.283E+00
  1.827E-07  1.827E-07  0.000E+00  0.000E+00  6.283E+00  6.283E+00
  2.232E-07  2.232E-07  0.000E+00  0.000E+00  6.283E+00  6.283E+00
  2.727E-07  2.727E-07  0.000E+00  0.000E+00  6.283E+00  6.283E+00
  3.332E-07  3.332E-07  0.000E+00  0.000E+00  6.283E+00  6.283E+00
  4.071E-07  4.071E-07  0.000E+00  0.000E+00  6.283E+00  6.283E+00
  4.974E-07  4.974E-07  0.000E+00  0.000E+00  6.283E+00  6.283E+00
  6.077E-07  6.077E-07  0.000E+00  0.000E+00  6.283E+00  6.283E+00
  7.424E-07  7.424E-07  0.000E+00  0.000E+00  6.283E+00  6.283E+00
  9.071E-07  9.071E-07  0.000E+00  0.000E+00  6.283E+00  6.283E+00
  1.108E-06  1.108E-06  0.000E+00  0.000E+00  6.283E+00  6.283E+00
  1.354E-06  1.354E-06  0.000E+00  0.000E+00  6.283E+00  6.283E+00
  1.654E-06  1.654E-06  0.000E+00  0.000E+00  6.283E+00  6.283E+00
  2.021E-06  2.021E-06  0.000E+00  0.000E+00  6.283E+00  6.283E+00
  2.469E-06  2.469E-06  0.000E+00  0.000E+00  6.283E+00  6.283E+00
  3.017E-06  3.017E-06  0.000E+00  0.000E+00  6.283E+00  6.283E+00
  3.686E-06  3.686E-06  0.000E+00  0.000E+00  6.283E+00  6.283E+00
  4.504E-06  4.504E-06  0.000E+00  0.000E+00  6.283E+00  6.283E+00
  5.502E-06  5.502E-06  0.000E+00  0.000E+00  6.283E+00  6.283E+00
  6.723E-06  6.723E-06  0.000E+00  0.000E+00  6.283E+00  6.283E+00
  8.214E-06  8.214E-06  0.000E+00  0.000E+00  6.283E+00  6.283E+00
  1.004E-05  1.004E-05  0.000E+00  0.000E+00  6.283E+00  6.283E+00
  1.226E-05  1.226E-05  0.000E+00  0.000E+00  6.283E+00  6.283E+00
  1.498E-05  1.498E-05  0.000E+00  0.000E+00  6.283E+00  6.283E+00
  1.830E-05  1.830E-05  0.000E+00  0.000E+00  6.283E+00  6.283E+00
  2.236E-05  2.236E-05  0.000E+00  0.000E+00  6.283E+00  6.283E+00
  2.732E-05  2.732E-05  0.000E+00  0.000E+00  6.283E+00  6.283E+00
  3.338E-05  3.338E-05  0.000E+00  0.000E+00  6.283E+00  6.283E+00
  4.078E-05  4.078E-05  0.000E+00  0.000E+00  6.283E+00  6.283E+00
  4.982E-05  4.982E-05  0.000E+00  0.000E+00  6.283E+00  6.283E+00
  6.087E-05  6.087E-05  0.000E+00  0.000E+00  6.283E+00  6.283E+00
  7.437E-05  7.437E-05  0.000E+00  0.000E+00  6.283E+00  6.283E+00
  9.087E-05  9.087E-05  0.000E+00  0.000E+00  6.283E+00  6.283E+00
  1.110E-04  1.110E-04  0.000E+00  0.000E+00  6.283E+00  6.283E+00
  1.356E-04  1.356E-04  0.000E+00  0.000E+00  6.283E+00  6.283E+00
  1.657E-04  1.657E-04  0.000E+00  0.000E+00  6.283E+00  6.283E+00
  2.025E-04  2.025E-04  0.000E+00  0.000E+00  6.283E+00  6.283E+00
  2.474E-04  2.474E-04  0.000E+00  0.000E+00  6.283E+00  6.283E+00
  3.022E-04  3.022E-04  0.000E+00  0.000E+00  6.283E+00  6.283E+00
  3.693E-04  3.693E-04  0.000E+00  0.000E+00  6.283E+00  6.283E+00
  4.512E-04  4.512E-04  0.000E+00  0.000E+00  6.283E+00  6.283E+00
  5.512E-04  5.512E-04  0.000E+00  0.000E+00  6.283E+00  6.283E+00
  6.735E-04  6.735E-04  0.000E+00  0.000E+00  6.283E+00  6.283E+00
  8.228E-04  8.228E-04  0.000E+00  0.000E+00  6.283E+00  6.283E+00
  1.005E-03  1.005E-03  0.000E+00  0.000E+00  6.283E+00  6.283E+00
  1.228E-03  1.228E-03  0.000E+00  0.000E+00  6.283E+00  6.283E+00
  1.501E-03  1.501E-03  0.000E+00  0.000E+00  6.283E+00  6.283E+00
  1.833E-03  1.833E-03  0.000E+00  0.000E+00  6.283E+00  6.283E+00
  2.240E-03  2.240E-03  0.000E+00  0.000E+00  6.283E+00  6.283E+00
  2.737E-03  2.737E-03  0.000E+00  0.000E+00  6.283E+00  6.283E+00
  3.344E-03  3.344E-03  0.000E+00  0.000E+00  6.283E+00  6.283E+00
  4.085E-03  4.085E-03  0.000E+00  0.000E+00  6.283E+00  6.283E+00
  4.991E-03  4.991E-03  0.000E+00  0.000E+00  6.283E+00  6.283E+00
  6.098E-03  6.098E-03  0.000E+00  0.000E+00  6.283E+00  6.283E+00
  7.450E-03  7.450E-03  0.000E+00  0.000E+00  6.283E+00  6.283E+00
  9.103E-03  9.103E-03  0.000E+00  0.000E+00  6.283E+00  6.283E+00
  1.112E-02  1.112E-02  0.000E+00  0.000E+00  6.283E+00  6.283E+00
  1.359E-02  1.359E-02  0.000E+00  0.000E+00  6.283E+00  6.283E+00
  1.660E-02  1.660E-02  0.000E+00  0.000E+00  6.283E+00  6.283E+00
  2.028E-02  2.028E-02  0.000E+00  0.000E+00  6.283E+00  6.283E+00
  2.478E-02  2.478E-02  0.000E+00  0.000E+00  6.283E+00  6.283E+00
  3.028E-02  3.028E-02  0.000E+00  0.000E+00  6.283E+00  6.283E+00
  3.699E-02  3.699E-02  0.000E+00  0.000E+00  6.283E+00  6.283E+00
  4.520E-02  4.520E-02  0.000E+00  0.000E+00  6.283E+00  6.283E+00
  5.522E-02  5.522E-02  0.000E+00  0.000E+00  6.283E+00  6.283E+00
  6.746E-02  6.746E-02  0.000E+00  0.000E+00  6.283E+00  6.283E+00
  8.243E-02  8.243E-02  0.000E+00  0.000E+00  6.283E+00  6.283E+00
  1.007E-01  1.007E-01  0.000E+00  0.000E+00  6.283E+00  6.283E+00
  1.230E-01  1.230E-01  0.000E+00  0.000E+00  6.283E+00  6.283E+00
  1.503E-01  1.503E-01  0.000E+00  0.000E+00  6.283E+00  6.283E+00
  1.837E-01  1.837E-01  0.000E+00  0.000E+00  6.283E+00  6.283E+00
  2.244E-01  2.244E-01  0.000E+00  0.000E+00  6.283E+00  6.283E+00
  2.742E-01  2.742E-01  0.000E+00  0.000E+00  6.283E+00  6.283E+00
  3.350E-01  3.350E-01  0.000E+00  0.000E+00  6.283E+00  6.283E+00
  4.092E-01  4.092E-01  0.000E+00  0.000E+00  6.283E+00  6.283E+00
  5.000E-01  5.000E-01  0.000E+00  0.000E+00  6.283E+00  6.283E+00
